time/s,reltime/s,C/mA.h,C/A.h,Ewe/V,Ece/V,Ewe-Ece/V,,soc_init (lookup in 0.2C),,Q/Q_max,soc_cell
515876.533370503,0,8.08214479022555E-08,8.08214479022555E-11,0.223730579018592,-1.00619554519653,1.22992612421512,,0.000510415415779126,,1.10866183679363E-06,0.00051152407761592
515876.533570503,0.00020000000949949,1.61801828278435E-07,1.61801828278435E-10,0.238141924142837,-1.00737643241882,1.24551835656166,,,,2.21950381726248E-06,0.000512634919596389
515876.533770503,0.000400000018998981,2.42842250400119E-07,2.42842250400119E-10,0.246619626879692,-1.00982022285461,1.2564398497343,,,,3.33116941563949E-06,0.000513746585194766
515876.533970503,0.000600000028498471,3.23886209064059E-07,3.23886209064059E-10,0.251354932785034,-1.01144301891326,1.2627979516983,,,,4.44288352625595E-06,0.000514858299305382
515876.534170503,0.0007999999797903,4.04965486791398E-07,4.04965486791398E-10,0.254600882530212,-1.01270306110382,1.26730394363403,,,,5.55508212333879E-06,0.000515970497902465
515876.534370503,0.00099999998928979,4.86020041836632E-07,4.86020041836632E-10,0.257006734609603,-1.01388669013977,1.27089342474937,,,,6.66694158897986E-06,0.000517082357368106
515876.534570503,0.00119999999878928,5.67124042246076E-07,5.67124042246076E-10,0.258744269609451,-1.01484131813049,1.27358558773994,,,,7.77947931750447E-06,0.000518194895096631
515876.534770503,0.00140000000828877,6.4817859729131E-07,6.4817859729131E-10,0.260233610868454,-1.01564311981201,1.27587673068046,,,,8.89133878314554E-06,0.000519306754562272
515876.534970503,0.00160000001778826,7.29268471399942E-07,7.29268471399942E-10,0.261474698781967,-1.01625406742095,1.27772876620292,,,,1.0003682735253E-05,0.000520419098514379
515876.535170503,0.00180000002728775,8.10365405347612E-07,8.10365405347612E-10,0.262620329856872,-1.01692235469818,1.27954268455505,,,,1.11161235301456E-05,0.000521531539309272
515876.535570503,0.00219999998807907,9.72520424260033E-07,9.72520424260033E-10,0.264587014913559,-1.01785778999328,1.28244480490684,,,,1.33404722120718E-05,0.000523755887991198
515876.535970503,0.00260000000707805,1.13465778032938E-06,1.13465778032938E-09,0.266209989786148,-1.01867878437042,1.28488877415657,,,,1.55645786053413E-05,0.000525979994384467
515876.536370503,0.00300000002607703,1.29680926269955E-06,1.29680926269955E-09,0.26777571439743,-1.01928973197937,1.2870654463768,,,,1.77888787750281E-05,0.000528204294554154
515876.536770504,0.00340000103460625,1.45898547437455E-06,1.45898547437455E-09,0.26926502585411,-1.01991975307464,1.28918477892875,,,,2.00135181670034E-05,0.00053042893394613
515876.537170504,0.00380000099539757,1.62114049328698E-06,1.62114049328698E-09,0.270697087049484,-1.02030158042907,1.29099866747856,,,,2.22378668489298E-05,0.000532653282628056
515876.537570504,0.00420000101439655,1.78331317504247E-06,1.78331317504247E-09,0.272071838378906,-1.02070248126983,1.29277431964874,,,,2.44624578195126E-05,0.000534877873598639
515876.537970504,0.00460000103339553,1.94557062122556E-06,1.94557062122556E-09,0.27335113286972,-1.02100789546966,1.29435902833938,,,,2.66882115394453E-05,0.000537103627318571
515876.538370505,0.00500000198371708,2.10777509212493E-06,2.10777509212493E-09,0.274687707424163,-1.02135157585144,1.2960392832756,,,,2.89132385751019E-05,0.000539328654354228
515876.538770505,0.00540000200271606,2.27000074916415E-06,2.27000074916415E-09,0.275986105203628,-1.02148520946502,1.29747131466865,,,,3.11385562299609E-05,0.000541553972009087
515876.539170505,0.00580000202171505,2.43223700258467E-06,2.43223700258467E-09,0.277150809764862,-1.02173340320587,1.29888421297073,,,,3.33640192398446E-05,0.000543779435018971
515876.539570504,0.00620000099297613,2.59442734056048E-06,2.59442734056048E-09,0.278430104255676,-1.02207708358764,1.30050718784332,,,,3.5588852408237E-05,0.000546004268187363
515876.539970504,0.00660000101197511,2.75665652751922E-06,2.75665652751922E-09,0.279652118682861,-1.02207708358764,1.3017292022705,,,,3.78142184844886E-05,0.000548229634263615
515876.540370503,0.00699999998323619,2.91881861289342E-06,2.91881861289342E-09,0.280931413173675,-1.02238249778747,1.30331391096115,,,,4.00386641000469E-05,0.000550454079879173
515876.540770502,0.00739999901270494,3.08103720347086E-06,3.08103720347086E-09,0.282000690698623,-1.02253532409668,1.3045360147953,,,,4.22638848212738E-05,0.0005526793006004
515876.541170502,0.00779999903170392,3.24321341514587E-06,3.24321341514587E-09,0.283241778612136,-1.02259254455566,1.3058343231678,,,,4.44885242132493E-05,0.000554903939992375
515876.541570501,0.008199998002965,3.40543200572331E-06,3.40543200572331E-09,0.284272849559783,-1.02272617816925,1.30699902772903,,,,4.67137449344761E-05,0.000557129160713602
515876.5419705,0.00859999703243375,3.56760115755928E-06,3.56760115755928E-09,0.285494863986969,-1.02285981178283,1.3083546757698,,,,4.89382874836664E-05,0.000559353703262793
515876.5423705,0.00899999699322507,3.72981268829769E-06,3.72981268829769E-09,0.286640495061874,-1.02303171157836,1.30967220664024,,,,5.11634113621082E-05,0.000561578827141234
515876.542770499,0.00939999602269381,3.89199595981174E-06,3.89199595981174E-09,0.287671566009521,-1.02303171157836,1.31070327758789,,,,5.33881475968689E-05,0.000563803563375995
515876.543170498,0.0097999949939549,4.05417217148674E-06,4.05417217148674E-09,0.288798123598098,-1.02322256565094,1.31202068924903,,,,5.56127869888442E-05,0.00056602820276797
515876.543570498,0.0101999950129539,4.21634838316175E-06,4.21634838316175E-09,0.290020138025283,-1.02316534519195,1.31318548321723,,,,5.78374263808196E-05,0.000568252842159946
515876.543970497,0.010599993984215,4.37854931751887E-06,4.37854931751887E-09,0.291089385747909,-1.02331805229187,1.31440743803978,,,,6.00624049042369E-05,0.000570477820683363
515876.544370496,0.0109999930136837,4.54073258903291E-06,4.54073258903291E-09,0.292196840047836,-1.02339434623718,1.31559118628501,,,,6.22871411389974E-05,0.000572702556918123
515876.544770496,0.0113999930326827,4.70292999347051E-06,4.70292999347051E-09,0.293323367834091,-1.0234135389328,1.31673690676689,,,,6.45120712410221E-05,0.000574927487020148
515876.545170495,0.0117999920039438,4.86513092782762E-06,4.86513092782762E-09,0.294411718845367,-1.02343261241912,1.31784433126449,,,,6.67370497644392E-05,0.000577152465543565
515876.545570494,0.0121999910334125,5.02732479572296E-06,5.02732479572296E-09,0.295557379722595,-1.02347075939178,1.31902813911438,,,,6.89619313542244E-05,0.00057937734713335
515876.545970493,0.0125999900046736,5.1895186636183E-06,5.1895186636183E-09,0.29660752415657,-1.02352809906005,1.32013562321662,,,,7.11868129440096E-05,0.000581602228723136
515876.546370493,0.0129999900236726,5.35170193513234E-06,5.35170193513234E-09,0.297714978456497,-1.02366173267364,1.32137671113014,,,,7.34115491787701E-05,0.000583826964957896
515876.546970492,0.0135999890044332,5.59500333335664E-06,5.59500333335664E-09,0.299299776554107,-1.02368080615997,1.32298058271408,,,,7.67490169184724E-05,0.000587164432697599
515876.547570491,0.0141999879851937,5.83830473820368E-06,5.83830473820368E-09,0.300808191299438,-1.02368080615997,1.32448899745941,,,,8.00864847490217E-05,0.000590501900528148
515876.54797049,0.0145999870146625,6.00054805808597E-06,6.00054805808597E-09,0.301896542310714,-1.02362346649169,1.32552000880241,,,,8.23120446925373E-05,0.000592727460471663
515876.548370489,0.0149999859859236,6.16277018520567E-06,6.16277018520567E-09,0.302908539772033,-1.02381443977356,1.32672297954559,,,,8.45373139260037E-05,0.00059495272970513
515876.548770489,0.0153999860049225,6.32496405310101E-06,6.32496405310101E-09,0.303958684206008,-1.02392899990081,1.32788768410682,,,,8.67621955157889E-05,0.000597177611294915
515876.549370488,0.0159999849856831,6.56821954250335E-06,6.56821954250335E-09,0.305448025465011,-1.02390992641449,1.3293579518795,,,,9.00990335048471E-05,0.000600514449283973
515876.549970487,0.0165999840246514,6.8115809890959E-06,6.8115809890959E-09,0.306880056858062,-1.02387166023254,1.3307517170906,,,,9.34373249533045E-05,0.000603852740732431
515876.550370486,0.0169999829959124,6.97381017605463E-06,6.97381017605463E-09,0.30800661444664,-1.02383351325988,1.33184012770652,,,,9.5662691029556E-05,0.000606078106808682
515876.550970485,0.0175999820348807,7.2170939180586E-06,7.2170939180586E-09,0.309419572353363,-1.02400529384613,1.33342486619949,,,,9.89999165714486E-05,0.000609415332350575
515876.551370484,0.0179999810061418,7.37923834058973E-06,7.37923834058973E-09,0.310488820075988,-1.0240626335144,1.33455145359039,,,,0.00010122411989835,0.000611639535677476
515876.551970483,0.0185999799869023,7.62252914243274E-06,7.62252914243274E-09,0.311901777982711,-1.02413892745971,1.33604070544242,,,,0.000104561442283028,0.000614976858062154
515876.552570482,0.0191999790258706,7.86586233642366E-06,7.86586233642366E-09,0.313391089439392,-1.02408170700073,1.33747279644012,,,,0.000107899346178651,0.000618314761957777
515876.553170481,0.0197999780066311,8.10917786094877E-06,8.10917786094877E-09,0.314708590507507,-1.02415812015533,1.33886671066284,,,,0.000111237007694771,0.000621652423473897
515876.553570481,0.0201999780256301,8.27137173546685E-06,8.27137173546685E-09,0.315720558166503,-1.02423441410064,1.33995497226715,,,,0.000113461889375403,0.000623877305154529
515876.55417048,0.0207999770063907,8.51460603210661E-06,8.51460603210661E-09,0.317133516073226,-1.0243489742279,1.34148249030113,,,,0.000116798436654412,0.000627213852433538
515876.554770479,0.0213999759871513,8.75793569617801E-06,8.75793569617801E-09,0.318565547466278,-1.0243489742279,1.34291452169418,,,,0.000120136292128642,0.000630551707907768
515876.555370479,0.0219999760156497,9.00123003456327E-06,9.00123003456327E-09,0.319921225309371,-1.02436804771423,1.3442892730236,,,,0.000123473663025559,0.000633889078804685
515876.55597048,0.0225999770336784,9.24452790286805E-06,9.24452790286805E-09,0.321181416511535,-1.02432990074157,1.34551131725311,,,,0.000126811082343869,0.000637226498122995
515876.55657048,0.0231999770039693,9.48779751857121E-06,9.48779751857121E-09,0.322632551193237,-1.0244253873825,1.34705793857574,,,,0.000130148114109344,0.000640563529888471
515876.557170481,0.023799978021998,9.73105653789308E-06,9.73105653789308E-09,0.324007332324981,-1.02438712120056,1.34839445352554,,,,0.000133485000519795,0.000643900416298921
515876.557770481,0.0243999779922888,9.97431555721494E-06,9.97431555721494E-09,0.325305700302124,-1.02432990074157,1.3496356010437,,,,0.000136821886930246,0.000647237302709372
515876.558370481,0.0249999780207872,1.02176028291384E-05,1.02176028291384E-08,0.326680481433868,-1.02446353435516,1.35114401578903,,,,0.000140159160893531,0.000650574576672657
515876.558970481,0.0255999779910781,1.04608901010619E-05,1.04608901010619E-08,0.327787905931472,-1.02450168132782,1.35228958725929,,,,0.000143496434856816,0.000653911850635942
515876.559370481,0.025999978010077,1.06230663127369E-05,1.06230663127369E-08,0.328952640295028,-1.02452075481414,1.35347339510917,,,,0.000145721074248792,0.000656136490027918
515876.559970481,0.0265999779803678,1.08664383557107E-05,1.08664383557107E-08,0.330193758010864,-1.02453994750976,1.35473370552063,,,,0.000149059511052273,0.000659474926831399
515876.56057048,0.0271999770193361,1.11097574101554E-05,1.11097574101554E-08,0.331492125988006,-1.02457809448242,1.35607022047042,,,,0.000152397220989786,0.000662812636768912
515876.56117048,0.0277999769896269,1.1353030555778E-05,1.1353030555778E-08,0.332752346992492,-1.02457809448242,1.35733044147491,,,,0.000155734301176653,0.000666149716955779
515876.56177048,0.0283999770181254,1.15963496168454E-05,1.15963496168454E-08,0.334184378385543,-1.02461624145507,1.35880061984062,,,,0.000159072011205012,0.000669487426984138
515876.562370481,0.0289999780361541,1.18395909733242E-05,1.18395909733242E-08,0.335387289524078,-1.02461624145507,1.36000353097915,,,,0.000162408655326807,0.000672824071105933
515876.562970481,0.0295999780064449,1.20828923715485E-05,1.20828923715485E-08,0.336685687303543,-1.02438712120056,1.3610728085041,,,,0.000165746123066509,0.000676161538845635
515876.56357048,0.0301999769872054,1.23262078960736E-05,1.23262078960736E-08,0.337926805019378,-1.02453994750976,1.36246675252914,,,,0.000169083784582628,0.000679499200361754
515876.56417048,0.0307999770157039,1.25695092942979E-05,1.25695092942979E-08,0.339225172996521,-1.0246353149414,1.36386048793792,,,,0.000172421252322331,0.000682836668101457
515876.56477048,0.0313999769859947,1.28128283553653E-05,1.28128283553653E-08,0.340485394001007,-1.02440631389617,1.36489170789718,,,,0.00017575896235069,0.000686174378129816
515876.56537048,0.0319999770144932,1.30561050309075E-05,1.30561050309075E-08,0.34182196855545,-1.02450168132782,1.36632364988327,,,,0.000179096090958951,0.000689511506738077
515876.56597048,0.032599976984784,1.32993711100684E-05,1.32993711100684E-08,0.343120336532592,-1.02450168132782,1.36762201786041,,,,0.000182433074212187,0.000692848489991313
515876.566570479,0.0331999760237522,1.35427290267414E-05,1.35427290267414E-08,0.34418961405754,-1.02436804771423,1.36855766177177,,,,0.000185771317239251,0.000696186733018377
515876.56717048,0.0337999769835733,1.37860374914275E-05,1.37860374914275E-08,0.345373421907424,-1.02446353435516,1.36983695626258,,,,0.000189108881912586,0.000699524297691712
515876.56777048,0.0343999770120718,1.40293318298127E-05,1.40293318298127E-08,0.346557259559631,-1.02448260784149,1.37103986740112,,,,0.000192446252809502,0.000702861668588628
515876.568370481,0.0349999780301005,1.42726932697826E-05,1.42726932697826E-08,0.347874730825424,-1.02453994750976,1.37241467833519,,,,0.000195784544167114,0.00070619995994624
515876.568970481,0.0355999780003913,1.45159911380873E-05,1.45159911380873E-08,0.348943978548049,-1.02438712120056,1.37333109974861,,,,0.000199121963485423,0.000709537379264549
515876.569570481,0.0361999780288897,1.47592995961507E-05,1.47592995961507E-08,0.350051432847976,-1.02444446086883,1.37449589371681,,,,0.000202459528067911,0.000712874943847037
515876.570170482,0.0367999789887108,1.50025692118538E-05,1.50025692118538E-08,0.351235270500183,-1.02455902099609,1.37579429149627,,,,0.000205796559833385,0.000716211975612512
515876.570770481,0.037399978027679,1.52458741399976E-05,1.52458741399976E-08,0.352438181638717,-1.0244253873825,1.37686356902122,,,,0.00020913407599448,0.000719549491773606
515876.57137048,0.0379999770084396,1.54891331526968E-05,1.54891331526968E-08,0.353583812713623,-1.02444446086883,1.37802827358245,,,,0.000212470962314085,0.000722886378093211
515876.571970479,0.0385999759892002,1.5732484002908E-05,1.5732484002908E-08,0.354805827140808,-1.02448260784149,1.3792884349823,,,,0.000215809108407517,0.000726224524186643
515876.572770478,0.0393999749794602,1.60567693180508E-05,1.60567693180508E-08,0.356237858533859,-1.02450168132782,1.38073953986167,,,,0.000220257466639929,0.000730672882419055
515876.573370477,0.0399999740184285,1.63001307646433E-05,1.63001307646433E-08,0.357288032770156,-1.02444446086883,1.38173249363899,,,,0.000223595758088385,0.000734011173867511
515876.573970476,0.0405999729991891,1.65433862474229E-05,1.65433862474229E-08,0.358357310295105,-1.02440631389617,1.38276362419128,,,,0.000226932595986597,0.000737348011765723
515876.574570475,0.0411999719799496,1.67867088450325E-05,1.67867088450325E-08,0.359445661306381,-1.02448260784149,1.38392826914787,,,,0.000230270354527195,0.000740685770306321
515876.575170474,0.0417999710189179,1.7030052628782E-05,1.7030052628782E-08,0.360610395669937,-1.02453994750976,1.3851503431797,,,,0.000233608403686996,0.000744023819466122
515876.575970472,0.0425999690196477,1.73544686304198E-05,1.73544686304198E-08,0.361889660358429,-1.02448260784149,1.38637226819992,,,,0.000238058554601095,0.000748473970380221
515876.576770471,0.0433999680099078,1.7678934070799E-05,1.7678934070799E-08,0.363245338201522,-1.024711728096,1.38795706629753,,,,0.000242509383687229,0.000752924799466355
515876.57757047,0.0441999670001678,1.80033535957336E-05,1.80033535957336E-08,0.364543735980987,-1.02465450763702,1.38919824361801,,,,0.000246959582931874,0.000757374998711
515876.578170469,0.0447999659809284,1.824667971664E-05,1.824667971664E-08,0.365593910217285,-1.0246353149414,1.39022922515869,,,,0.000250297389803018,0.000760712805582144
515876.578770468,0.0453999650198966,1.84900446865293E-05,1.84900446865293E-08,0.366682261228561,-1.02474987506866,1.39143213629722,,,,0.000253635729582021,0.000764051145361147
515876.579570466,0.0461999630206265,1.88144642114639E-05,1.88144642114639E-08,0.367961555719375,-1.0246353149414,1.39259687066078,,,,0.000258085928826665,0.000768501344605791
515876.580370465,0.0469999620108865,1.91388201581107E-05,1.91388201581107E-08,0.369431763887405,-1.02467358112335,1.39410534501075,,,,0.000262535255941162,0.000772950671720288
515876.581170463,0.0477999600116164,1.94632573392656E-05,1.94632573392656E-08,0.370691984891891,-1.02465450763702,1.39534649252891,,,,0.000266985697383616,0.000777401113162742
515876.581970462,0.0485999590018764,1.97876380152172E-05,1.97876380152172E-08,0.372047632932663,-1.02469265460968,1.39674028754234,,,,0.000271435363720401,0.000781850779499527
515876.582770461,0.0493999579921365,2.01120363473892E-05,2.01120363473892E-08,0.373269647359848,-1.02446353435516,1.39773318171501,,,,0.000275885272254996,0.000786300688034122
515876.583570459,0.0501999559928663,2.04364417394002E-05,2.04364417394002E-08,0.374548941850662,-1.02467358112335,1.39922252297401,,,,0.000280335277632376,0.000790750693411502
515876.584370458,0.0509999549831264,2.07608542044957E-05,2.07608542044957E-08,0.375828236341476,-1.02459716796875,1.40042540431022,,,,0.000284785380034235,0.000795200795813361
515876.585170457,0.0517999540315941,2.10853090551164E-05,2.10853090551164E-08,0.377050250768661,-1.02457809448242,1.40162834525108,,,,0.000289236063856192,0.000799651479635318
515876.585970456,0.0525999530218542,2.14096685383055E-05,2.14096685383055E-08,0.378234088420867,-1.02446353435516,1.40269762277603,,,,0.000293685439482929,0.000804100855262055
515876.586770456,0.0533999530016445,2.17340739435619E-05,2.17340739435619E-08,0.379379719495773,-1.02455902099609,1.40393874049186,,,,0.000298135445042001,0.000808550860821127
515876.587570457,0.0541999540291727,2.20585181845559E-05,2.20585181845559E-08,0.380678087472915,-1.02459716796875,1.40527525544166,,,,0.000302585983327241,0.000813001399106368
515876.588370457,0.054999954008963,2.23829659687148E-05,2.23829659687148E-08,0.3819001019001,-1.0244253873825,1.4063254892826,,,,0.000307036570215567,0.000817451985994693
515876.589170458,0.0557999550364912,2.27073360482851E-05,2.27073360482851E-08,0.383083939552307,-1.02450168132782,1.40758562088012,,,,0.000311486091197326,0.000821901506976453
515876.589970458,0.0565999550162815,2.303177322944E-05,2.303177322944E-08,0.384134113788604,-1.02448260784149,1.40861672163009,,,,0.000315936532639781,0.000826351948418907
515876.590770458,0.0573999549960718,2.33561221228705E-05,2.33561221228705E-08,0.385222464799881,-1.02450168132782,1.4097241461277,,,,0.000320385763002339,0.000830801178781465
515876.591570457,0.0581999539863318,2.3680403901471E-05,2.3680403901471E-08,0.386406272649765,-1.02450168132782,1.41090795397758,,,,0.00032483407272251,0.000835249488501636
515876.592370457,0.0589999540243298,2.40048057635625E-05,2.40048057635625E-08,0.387475550174713,-1.02452075481414,1.41199630498886,,,,0.000329284029678498,0.000839699445457624
515876.593170457,0.0597999540041201,2.43292146921157E-05,2.43292146921157E-08,0.388487517833709,-1.02444446086883,1.41293197870254,,,,0.000333734083568117,0.000844149499347243
515876.593970457,0.0605999539839104,2.46536483565966E-05,2.46536483565966E-08,0.389556765556335,-1.02450168132782,1.41405844688415,,,,0.000338184476770872,0.000848599892549999
515876.594770457,0.0613999540219083,2.49780537552303E-05,2.49780537552303E-08,0.390740603208541,-1.02453994750976,1.4152805507183,,,,0.000342634482239099,0.000853049898018225
515876.595770457,0.0623999540111981,2.53834854563077E-05,2.53834854563077E-08,0.391981691122055,-1.02457809448242,1.41655978560447,,,,0.000348195959620133,0.000858611375399259
515876.596770457,0.0633999540004879,2.57889595296647E-05,2.57889595296647E-08,0.393108248710632,-1.02459716796875,1.41770541667938,,,,0.000353758018239571,0.000864173434018697
515876.597570456,0.064199952990748,2.61133967174424E-05,2.61133967174424E-08,0.394120216369628,-1.02457809448242,1.41869831085205,,,,0.000358208459772872,0.000868623875551999
515876.598570457,0.0651999540277757,2.6518902586566E-05,2.6518902586566E-08,0.395323127508163,-1.02461624145507,1.41993936896324,,,,0.00036377095454823,0.000874186370327357
515876.599570457,0.0661999540170655,2.69244402315881E-05,2.69244402315881E-08,0.396468788385391,-1.02455902099609,1.42102780938148,,,,0.00036933388520697,0.000879749300986096
515876.600570458,0.0671999549958855,2.73299602203899E-05,2.73299602203899E-08,0.397690802812576,-1.02469265460968,1.42238345742225,,,,0.0003748965736679,0.000885311989447026
515876.601370459,0.0679999560234137,2.7654400938087E-05,2.7654400938087E-08,0.398721873760223,-1.02469265460968,1.4234145283699,,,,0.000379347063622593,0.000889762479401719
515876.602370457,0.068999954033643,2.80598573552237E-05,2.80598573552237E-08,0.399791121482849,-1.02461624145507,1.42440736293792,,,,0.000384908880044221,0.000895324295823347
515876.603370456,0.0699999530334026,2.84653632177247E-05,2.84653632177247E-08,0.400898575782775,-1.02461624145507,1.42551481723785,,,,0.000390471374728734,0.00090088679050786
515876.604370454,0.0709999509854242,2.8870784315798E-05,2.8870784315798E-08,0.401948750019073,-1.02465450763702,1.42660325765609,,,,0.000396032706663896,0.000906448122443022
515876.605370452,0.0719999489956535,2.92762831250826E-05,2.92762831250826E-08,0.403151661157608,-1.02461624145507,1.42776790261268,,,,0.000401595104596469,0.000912010520375595
515876.60637045,0.0729999470058829,2.96817148195372E-05,2.96817148195372E-08,0.404240012168884,-1.02452075481414,1.42876076698303,,,,0.000407156581886656,0.000917571997665782
515876.607370449,0.0739999460056424,3.00872348149617E-05,3.00872348149617E-08,0.405271083116531,-1.02467358112335,1.42994466423988,,,,0.000412719270438432,0.000923134686217558
515876.608570447,0.0751999440253712,3.0573830558194E-05,3.0573830558194E-08,0.406550377607345,-1.02450168132782,1.43105205893516,,,,0.000419394109165899,0.000929809524945025
515876.609570445,0.0761999420356005,3.09793081680933E-05,3.09793081680933E-08,0.407638728618621,-1.02455902099609,1.43219774961471,,,,0.000424956216297576,0.000935371632076702
515876.610770443,0.0773999399971217,3.14658862484826E-05,3.14658862484826E-08,0.408803462982177,-1.02461624145507,1.43341970443725,,,,0.000431630812736387,0.000942046228515513
515876.611970441,0.0785999380168505,3.1952439599567E-05,3.1952439599567E-08,0.409910917282104,-1.02450168132782,1.43441259860992,,,,0.000438305069952908,0.000948720485732034
515876.612970439,0.0795999360270798,3.23579666614532E-05,3.23579666614532E-08,0.410922884941101,-1.02446353435516,1.43538641929626,,,,0.000443867855438316,0.000954283271217442
515876.614170437,0.080799933988601,3.28445835842026E-05,3.28445835842026E-08,0.411934852600097,-1.0246353149414,1.4365701675415,,,,0.000450542984694137,0.000960958400473263
515876.615370435,0.0819999320083298,3.33311652011341E-05,3.33311652011341E-08,0.413004130125045,-1.02452075481414,1.43752488493919,,,,0.000457217629645187,0.000967633045424313
515876.616770433,0.0833999299793504,3.38988296058442E-05,3.38988296058442E-08,0.414245218038559,-1.024711728096,1.43895694613456,,,,0.00046500452134217,0.000975419937121296
515876.618170433,0.0847999299876392,3.44665893846088E-05,3.44665893846088E-08,0.415486335754394,-1.02473080158233,1.44021713733673,,,,0.000472792721325224,0.00098320813710435
515876.619570434,0.0861999309854582,3.5034356229835E-05,3.5034356229835E-08,0.41665107011795,-1.02467358112335,1.4413246512413,,,,0.000480581018241907,0.000990996434021033
515876.620970435,0.0875999319832772,3.56020524303118E-05,3.56020524303118E-08,0.417758494615554,-1.02473080158233,1.44248929619789,,,,0.000488368346094812,0.000998783761873938
515876.622370434,0.0889999310020357,3.61697804265552E-05,3.61697804265552E-08,0.418789565563201,-1.02476894855499,1.44355851411819,,,,0.000496156110103638,0.00100657152588276
515876.623770433,0.0903999300207943,3.67375613980823E-05,3.67375613980823E-08,0.419992506504058,-1.02461624145507,1.44460874795913,,,,0.000503944600796739,0.00101436001657587
515876.625170434,0.0917999310186133,3.73052717248598E-05,3.73052717248598E-08,0.421061754226684,-1.02467358112335,1.44573533535003,,,,0.00051173212242606,0.00102214753820519
515876.626370434,0.0929999310174026,3.77919239732954E-05,3.77919239732954E-08,0.422092825174331,-1.02461624145507,1.44670906662941,,,,0.000518407736259196,0.00102882315203832
515876.627770433,0.0943999300361611,3.83596731490559E-05,3.83596731490559E-08,0.423104792833328,-1.024711728096,1.44781652092933,,,,0.000526195790796377,0.0010366112065755
515876.629370433,0.0959999299957417,3.90084451039632E-05,3.90084451039632E-08,0.424174070358276,-1.02448260784149,1.44865667819976,,,,0.000535095268915819,0.00104551068469495
515876.630770434,0.0973999309935607,3.95761342446009E-05,3.95761342446009E-08,0.425262421369552,-1.02459716796875,1.4498595893383,,,,0.000542882499925938,0.00105329791570506
515876.632570435,0.0991999320103787,4.03060525721973E-05,4.03060525721973E-08,0.426446259021759,-1.02465450763702,1.45110076665878,,,,0.000552895097012309,0.00106331051279143
515876.634170433,0.100799929990899,4.09548880921469E-05,4.09548880921469E-08,0.427458226680755,-1.0246353149414,1.45209354162216,,,,0.000561795447080204,0.00107221086285933
515876.63597043,0.102599926991388,4.16847993599043E-05,4.16847993599043E-08,0.428546577692031,-1.02484536170959,1.45339193940162,,,,0.00057180794732379,0.00108222336310292
515876.637570427,0.104199923982378,4.23335218628247E-05,4.23335218628247E-08,0.429596751928329,-1.02476894855499,1.45436570048332,,,,0.000580706747089502,0.00109112216286863
515876.639570424,0.106199920992367,4.31444947454664E-05,4.31444947454664E-08,0.430665999650955,-1.02484536170959,1.45551136136055,,,,0.000591831203641515,0.00110224661942064
515876.641170421,0.107799917983357,4.37933832406997E-05,4.37933832406997E-08,0.431697070598602,-1.02488350868225,1.45658057928085,,,,0.000600732280393686,0.00111114769617281
515876.642970418,0.109599914983846,4.45232344667116E-05,4.45232344667116E-08,0.432709068059921,-1.02484536170959,1.45755442976951,,,,0.000610743957019364,0.00112115937279849
515876.644770415,0.111399911984336,4.52530574401219E-05,4.52530574401219E-08,0.433740139007568,-1.02474987506866,1.45849001407623,,,,0.000620755246092207,0.00113117066187133
515876.646770412,0.113399908994325,4.60640373892254E-05,4.60640373892254E-08,0.434771209955215,-1.02473080158233,1.45950201153755,,,,0.000631879799577852,0.00114229521535698
515876.648370409,0.114999905985314,4.6712879969014E-05,4.6712879969014E-08,0.43582135438919,-1.02486443519592,1.46068578958511,,,,0.000640780246488532,0.00115119566226766
515876.65057041,0.117199907021131,4.76049427191416E-05,4.76049427191416E-08,0.436928808689117,-1.02476894855499,1.46169775724411,,,,0.000653017046901805,0.00116343246268093
515876.652770411,0.119399907998741,4.84971644083658E-05,4.84971644083658E-08,0.437959879636764,-1.02482628822326,1.46278616786003,,,,0.0006652560275496,0.00117567144332873
515876.65497041,0.12159990699729,4.93892695506413E-05,4.93892695506413E-08,0.438990950584411,-1.02494084835052,1.46393179893493,,,,0.000677493409473818,0.00118790882525294
515876.65737041,0.123999906994868,5.03625281453132E-05,5.03625281453132E-08,0.440041124820709,-1.0249980688095,1.46503919363021,,,,0.000690844007480291,0.00120125942325942
515876.659970409,0.126599906012416,5.1416880124145E-05,5.1416880124145E-08,0.441186755895614,-1.02495992183685,1.46614667773246,,,,0.000705306997587723,0.00121572241336685
515876.662370411,0.128999907989055,5.23899479839536E-05,5.23899479839536E-08,0.44227510690689,-1.02488350868225,1.46715861558914,,,,0.000718654979203753,0.00122907039498288
515876.664970411,0.131599907996133,5.34443564679887E-05,5.34443564679887E-08,0.443344384431839,-1.0249980688095,1.46834245324134,,,,0.000733118744416855,0.00124353416019598
515876.667570406,0.134199902997352,5.44986590147018E-05,5.44986590147018E-08,0.444413632154464,-1.02492177486419,1.46933540701866,,,,0.000747581056443098,0.00125799647222222
515876.669970402,0.13659989903681,5.54718540244632E-05,5.54718540244632E-08,0.445463806390762,-1.02494084835052,1.47040465474128,,,,0.000760930782228576,0.0012713461980077
515876.672970397,0.13959989399882,5.66883115768432E-05,5.66883115768432E-08,0.446552157402038,-1.02501714229583,1.47156929969787,,,,0.000777617442755051,0.00128803285853418
515876.675770392,0.142399889009539,5.78237145874235E-05,5.78237145874235E-08,0.447583228349685,-1.02515089511871,1.47273412346839,,,,0.000793192243997579,0.00130360765977671
515876.679170386,0.145799883001018,5.92022918462753E-05,5.92022918462753E-08,0.448614299297332,-1.02515089511871,1.47376519441604,,,,0.000812102768810361,0.00132251818458949
515876.682170387,0.148799884016626,6.04188235733244E-05,6.04188235733244E-08,0.44966447353363,-1.02515089511871,1.47481536865234,,,,0.000828790446822008,0.00133920586260113
515876.684970388,0.151599885022733,6.1554244240125E-05,6.1554244240125E-08,0.450714617967605,-1.02511262893676,1.47582724690437,,,,0.000844365490262346,0.00135478090604147
515876.688370387,0.154999884020071,6.29328109025955E-05,6.29328109025955E-08,0.451726615428924,-1.02507448196411,1.47680109739303,,,,0.000863275869720103,0.00137369128549923
515876.691570386,0.15819988300791,6.42304148342874E-05,6.42304148342874E-08,0.452776759862899,-1.02507448196411,1.47785124182701,,,,0.000881075649304354,0.00139149106508348
515876.695170389,0.161799886031076,6.56900395883454E-05,6.56900395883454E-08,0.453826934099197,-1.02522718906402,1.47905412316322,,,,0.000901097936739992,0.00141151335251912
515876.699370382,0.165999879012816,6.73930469817585E-05,6.73930469817585E-08,0.454877108335495,-1.02530360221862,1.48018071055412,,,,0.000924458806334136,0.00143487422211326
515876.702770376,0.169399873004295,6.87718255519867E-05,6.87718255519867E-08,0.455889075994491,-1.02526533603668,1.48115441203117,,,,0.000943372092619845,0.00145378750839897
515876.706770369,0.173399866034742,7.03937536478042E-05,7.03937536478042E-08,0.456920146942138,-1.02530360221862,1.48222374916076,,,,0.000965620763344365,0.00147603617912349
515876.710370363,0.176999860035721,7.18535691102345E-05,7.18535691102345E-08,0.457932144403457,-1.0252845287323,1.48321667313575,,,,0.000985645666807058,0.00149606108258618
515876.715170365,0.181799862009939,7.37999308639102E-05,7.37999308639102E-08,0.459039568901062,-1.02545630931854,1.4844958782196,,,,0.00101234473064349,0.00152276014642261
515876.720570364,0.187199860985857,7.59896752503183E-05,7.59896752503183E-08,0.460127919912338,-1.02541816234588,1.48554608225822,,,,0.00104238237654758,0.0015527977923267
515876.725170365,0.191799862019252,7.7854830596182E-05,7.7854830596182E-08,0.461254477500915,-1.02551352977752,1.48676800727844,,,,0.00106796749789001,0.00157838291366914
515876.72977036,0.196399856999051,7.97200671765539E-05,7.97200671765539E-08,0.462304651737213,-1.02547538280487,1.48778003454208,,,,0.00109355373356041,0.00160396914933954
515876.73557035,0.202199847029988,8.20720160139931E-05,8.20720160139931E-08,0.463354796171188,-1.02564716339111,1.4890019595623,,,,0.00112581640622761,0.00163623182200674
515876.74177034,0.208399837021716,8.45859362416797E-05,8.45859362416797E-08,0.464385867118835,-1.02579998970031,1.49018585681915,,,,0.00116030090866502,0.00167071632444414
515876.746770341,0.213399838015903,8.6613285448816E-05,8.6613285448816E-08,0.465531527996063,-1.02553272247314,1.4910642504692,,,,0.00118811091150639,0.00169852632728552
515876.75257034,0.219199837010819,8.89650365180439E-05,8.89650365180439E-08,0.466638952493667,-1.02574265003204,1.49238160252571,,,,0.00122037087130376,0.00173078628708288
515876.759970339,0.226599836023524,9.19654394653108E-05,9.19654394653108E-08,0.467670023441314,-1.02589535713195,1.49356538057327,,,,0.00126152866207559,0.00177194407785472
515876.765770329,0.232399825996254,9.43171975943777E-05,9.43171975943777E-08,0.468796581029892,-1.02578091621398,1.49457749724388,,,,0.00129378871871574,0.00180420413449487
515876.773170316,0.23979981301818,9.73178866108258E-05,9.73178866108258E-08,0.469884932041168,-1.0258572101593,1.49574214220047,,,,0.00133495043361901,0.00184536584939814
515876.781170317,0.247799813980237,0.000100561997115612,1.00561997115612E-07,0.470935106277465,-1.02597177028656,1.49690687656402,,,,0.00137945126358864,0.00188986667936777
515876.787970318,0.254599815001711,0.000103319709665245,1.03319709665245E-07,0.471947073936462,-1.02589535713195,1.49784243106842,,,,0.00141727996797318,0.00192769538375231
515876.794970309,0.261599806020968,0.000106158123572667,1.06158123572667E-07,0.472978144884109,-1.02595269680023,1.49893084168434,,,,0.00145621568686786,0.00196663110264699
515876.803970294,0.270599791023415,0.000109807697574297,1.09807697574297E-07,0.474009215831756,-1.02612447738647,1.50013369321823,,,,0.00150627843037444,0.00201669384615357
515876.810970294,0.277599791006651,0.000112646206849151,1.12646206849151E-07,0.475078493356704,-1.02600991725921,1.50108841061592,,,,0.00154521545746435,0.00205563087324347
515876.821370294,0.287999791034963,0.000116863212135103,1.16863212135103E-07,0.476090461015701,-1.02620089054107,1.50229135155677,,,,0.00160306189485738,0.00211347731063651
515876.82977028,0.296399776998442,0.000120269421146975,1.20269421146975E-07,0.477197915315628,-1.02618181705474,1.50337973237037,,,,0.00164978629831241,0.00216020171409154
515876.841370271,0.307999768003356,0.0001249730928474,1.249730928474E-07,0.478209882974624,-1.02643001079559,1.50463989377021,,,,0.00171430854386008,0.00222472395963921
515876.850570272,0.317199769022409,0.00012870368958844,1.2870368958844E-07,0.4792982339859,-1.02635359764099,1.50565183162689,,,,0.00176548271040384,0.00227589812618297
515876.862170254,0.328799751005136,0.000133407311830255,1.33407311830255E-07,0.480329304933548,-1.0265063047409,1.50683560967445,,,,0.00183000427750693,0.00234041969328605
515876.872770247,0.33939974399982,0.000137705325755808,1.37705325755808E-07,0.481379479169845,-1.02646815776825,1.50784763693809,,,,0.00188896194452412,0.00239937736030324
515876.884570246,0.351199742988683,0.000142490129682752,1.42490129682752E-07,0.482410550117492,-1.02654457092285,1.50895512104034,,,,0.00195459711498974,0.00246501253076887
515876.898570223,0.365199720021337,0.0001481672435734,1.481672435734E-07,0.483441621065139,-1.02675449848175,1.51019611954689,,,,0.00203247247700137,0.0025428878927805
515876.909570223,0.37619972001994,0.000152627702130211,1.52627702130211E-07,0.484491795301437,-1.02660179138183,1.51109358668327,,,,0.00209365846543499,0.00260407388121412
515876.925370207,0.391999704006594,0.0001590343952775,1.590343952775E-07,0.485522866249084,-1.02675449848175,1.51227736473083,,,,0.00218154177335391,0.00269195718913304
515876.939970201,0.406599698006175,0.000164954520967271,1.64954520967271E-07,0.486534833908081,-1.02690732479095,1.51344215869903,,,,0.00226275063055241,0.00277316604633154
515876.953770188,0.42039968498284,0.000170550121174918,1.70550121174918E-07,0.487546801567077,-1.02690732479095,1.51445412635803,,,,0.00233950783504689,0.00284992325082601
515876.967970178,0.434599675005302,0.000176307798690266,1.76307798690266E-07,0.488558799028396,-1.026869058609,1.5154278576374,,,,0.00241848832222587,0.002928903738005
515876.985170165,0.451799662027042,0.000183282301088174,1.83282301088174E-07,0.489570766687393,-1.02707910537719,1.51664987206459,,,,0.0025141605087541,0.00302457592453323
515877.002370154,0.468999651027843,0.000190256701085302,1.90256701085302E-07,0.490582764148712,-1.02719366550445,1.51777642965316,,,,0.00260983129060771,0.00312024670638684
515877.021970132,0.488599629024975,0.000198204292522536,1.98204292522536E-07,0.491690188646316,-1.02730822563171,1.51899841427803,,,,0.00271885174928033,0.00322926716505946
515877.042570127,0.509199624008033,0.000206557509965366,2.06557509965366E-07,0.492721259593963,-1.02742278575897,1.52014404535293,,,,0.00283343635069089,0.00334385176647002
515877.061370108,0.527999604993966,0.000214180876149071,2.14180876149071E-07,0.493790537118911,-1.02755641937255,1.52134695649147,,,,0.00293800927502155,0.00344842469080068
515877.082770088,0.549399584997445,0.00022285880976253,2.2285880976253E-07,0.494840681552887,-1.02753734588623,1.52237802743911,,,,0.00305704814489067,0.0035674635606698
515877.105770079,0.572399576019961,0.000232184999644756,2.32184999644756E-07,0.495852679014205,-1.02763271331787,1.52348539233207,,,,0.00318497941899528,0.00369539483477441
515877.127570061,0.594199558021501,0.000241024494899643,2.41024494899643E-07,0.496921926736831,-1.02774727344512,1.52466920018196,,,,0.00330623449793749,0.00381664991371662
515877.154170038,0.620799535012338,0.000251810878223843,2.51810878223843E-07,0.49793392419815,-1.02763271331787,1.52556663751602,,,,0.00345419586040937,0.0039646112761885
515877.178170016,0.644799512985628,0.000261542835348182,2.61542835348182E-07,0.499003171920776,-1.02803373336792,1.52703690528869,,,,0.0035876932146527,0.00409810863043183
515877.206969996,0.673599492991343,0.000273221041222413,2.73221041222413E-07,0.500015139579772,-1.02812910079956,1.52814424037933,,,,0.00374788808261198,0.0042583034983911
515877.23416998,0.700799476995599,0.000284250312692589,2.84250312692589E-07,0.501027166843414,-1.02807188034057,1.52909904718399,,,,0.00389918124406844,0.00440959665984756
515877.264369959,0.730999456020072,0.000296496200614505,2.96496200614505E-07,0.502058207988739,-1.02824366092681,1.53030186891555,,,,0.00406716324574081,0.00457757866151994
515877.29296994,0.759599437005818,0.000308093115270137,3.08093115270137E-07,0.503089308738708,-1.0283772945404,1.53146660327911,,,,0.00422624300782081,0.00473665842359994
515877.325769914,0.792399411031511,0.000321392934885289,3.21392934885289E-07,0.504101276397705,-1.0285301208496,1.53263139724731,,,,0.0044086822343661,0.00491909765014523
515877.363769879,0.830399375990965,0.000336801444351673,3.36801444351673E-07,0.505151450634002,-1.02864456176757,1.53379601240158,,,,0.0046200472476224,0.00513046266340153
515877.401569852,0.868199349031784,0.000352128895739714,3.52128895739714E-07,0.5062016248703,-1.02895009517669,1.53515172004699,,,,0.0048303003530825,0.00534071576886162
515877.443369829,0.909999325987883,0.000369077957385116,3.69077957385116E-07,0.507213592529296,-1.02893102169036,1.53614461421966,,,,0.00506279776934316,0.00557321318512228
515877.478569803,0.945199300011154,0.000383350788381364,3.83350788381364E-07,0.508225560188293,-1.02896916866302,1.53719472885131,,,,0.0052585842027622,0.00576899961854132
515877.523769757,0.990399254020304,0.000401679885930485,4.01679885930485E-07,0.509256601333618,-1.02908372879028,1.5383403301239,,,,0.00551001215268155,0.00602042756846068
515877.564369735,1.03099923202535,0.000418142722653018,4.18142722653018E-07,0.510268628597259,-1.02921736240387,1.53948599100112,,,,0.00573583981691383,0.00624625523269295
515877.607169704,1.07379920099629,0.000435497371395428,4.35497371395428E-07,0.511280596256256,-1.02925550937652,1.54053610563278,,,,0.00597390084218694,0.00648431625796607
515877.654769665,1.12139916198794,0.000454798756268289,4.54798756268289E-07,0.512292563915252,-1.02937006950378,1.54166263341903,,,,0.00623866606678037,0.0067490814825595
515877.706169625,1.17279912199592,0.000475641050000985,4.75641050000985E-07,0.513304531574249,-1.02961826324462,1.54292279481887,,,,0.00652456858711914,0.00703498400289826
515877.759569594,1.22619909100467,0.000497293868018521,4.97293868018521E-07,0.514316499233245,-1.02973282337188,1.54404932260513,,,,0.00682158941040495,0.00733200482618408
515877.80796955,1.27459904702846,0.000516919796029726,5.16919796029726E-07,0.515328466892242,-1.02975189685821,1.54508036375045,,,,0.00709080652990022,0.00760122194567935
515877.876369502,1.34299899899634,0.000544655152638753,5.44655152638753E-07,0.516340494155883,-1.03011465072631,1.5464551448822,,,,0.00747126409655354,0.00798167951233267
515877.943169456,1.40979895298369,0.000571741737266381,5.71741737266381E-07,0.517409741878509,-1.03028655052185,1.54769629240036,,,,0.00784282218472402,0.00835323760050315
515878.004569408,1.47119890502654,0.000596638453927305,5.96638453927305E-07,0.518421709537506,-1.03030562400817,1.54872733354568,,,,0.00818434093178745,0.00869475634756658
515878.070369364,1.53699886100367,0.000623319674021667,6.23319674021667E-07,0.519433677196502,-1.03051555156707,1.54994922876358,,,,0.00855033846394605,0.00906075387972518
515878.146769294,1.61339879099978,0.000654298441827297,6.54298441827297E-07,0.520445644855499,-1.03059196472168,1.55103760957717,,,,0.00897528726786416,0.00948570268364328
515878.223969246,1.69059874303639,0.000685602632237805,6.85602632237805E-07,0.521476745605468,-1.03074467182159,1.55222141742706,,,,0.00940470003069691,0.00991511544647604
515878.306769176,1.77339867298724,0.000719177402582433,7.19177402582433E-07,0.522545993328094,-1.03105020523071,1.5535961985588,,,,0.00986525929468358,0.0103756747104627
515878.390169119,1.85679861600511,0.000752995216482215,7.52995216482215E-07,0.523557960987091,-1.03095471858978,1.55451267957687,,,,0.010329152489468,0.0108395679052471
515878.486569045,1.95319854200352,0.000792084624257352,7.92084624257352E-07,0.524627208709716,-1.03126013278961,1.55588734149932,,,,0.0108653583574397,0.0113757737732188
515878.585768966,2.05239846301265,0.000832309731854332,8.32309731854332E-07,0.525639235973358,-1.03126013278961,1.55689936876297,,,,0.011417143098139,0.0119275585139181
515878.686568897,2.15319839399308,0.000873183780789375,8.73183780789375E-07,0.526651203632354,-1.03152751922607,1.55817872285842,,,,0.0119778296404578,0.0124882450562369
515878.792168824,2.25879832101055,0.000916003898474905,9.16003898474905E-07,0.527663171291351,-1.03166115283966,1.55932432413101,,,,0.012565211227365,0.0130756266431441
515878.905568734,2.3721982309944,0.000961985786497592,9.61985786497592E-07,0.528675138950347,-1.0318329334259,1.56050807237625,,,,0.0131959641494869,0.013706379565266
515879.029168641,2.49579813802848,0.00101210353336069,1.01210353336069E-06,0.529725313186645,-1.03192842006683,1.56165373325347,,,,0.0138834503890355,0.0143938658048147
515879.167368544,2.63399804098299,0.00106814162127176,1.06814162127176E-06,0.5308518409729,-1.03196656703949,1.56281840801239,,,,0.0146521484399418,0.015162563855721
515879.308568432,2.77519792900421,0.00112539601490895,1.12539601490895E-06,0.531882941722869,-1.03232932090759,1.56421226263046,,,,0.0154375310687099,0.015947946484489
515879.466768315,2.93339781201212,0.00118954291344351,1.18954291344351E-06,0.532952189445495,-1.03242480754852,1.56537699699401,,,,0.0163174610897601,0.0168278765055392
515879.629568198,3.09619769500569,0.00125555713580714,1.25555713580714E-06,0.533964157104492,-1.0325584411621,1.5665225982666,,,,0.0172230059781501,0.0177334213939292
515879.788768083,3.25539757998195,0.00132011076584789,1.32011076584789E-06,0.535014331340789,-1.03263473510742,1.56764906644821,,,,0.0181085153065554,0.0186189307223345
515879.985767928,3.45239742501872,0.00139999164583285,1.39999164583285E-06,0.536026298999786,-1.03297841548919,1.56900471448898,,,,0.019204274977131,0.0197146903929101
515880.168567797,3.63519729400286,0.00147411495076285,1.47411495076285E-06,0.537076473236084,-1.03309297561645,1.57016944885253,,,,0.0202210555660199,0.020731470981799
515880.367367638,3.83399713499239,0.00155472644844982,1.55472644844982E-06,0.538107573986053,-1.03324568271637,1.57135325670242,,,,0.0213268374272952,0.0218372528430743
515880.585167476,4.05179697298445,0.00164304164285792,1.64304164285792E-06,0.53911954164505,-1.0334175825119,1.57253712415695,,,,0.0225382941407122,0.0230487095564913
515880.825567307,4.29219680401729,0.00174052164200941,1.74052164200941E-06,0.540131509304046,-1.03368484973907,1.57381635904312,,,,0.0238754683403211,0.0243858837561003
515881.065367127,4.53199662402039,0.00183775742146703,1.83775742146703E-06,0.541219890117645,-1.03383755683898,1.57505744695663,,,,0.0252092924755423,0.0257197078913214
515881.325966933,4.79259642999386,0.00194342823221286,1.94342823221286E-06,0.542231857776641,-1.0339902639389,1.57622212171554,,,,0.0266588234871449,0.027169238902924
515881.594166732,5.06079622899415,0.0020521807160841,2.0521807160841E-06,0.543243825435638,-1.03423845767974,1.57748228311538,,,,0.0281506271067778,0.0286610425225569
515881.888966513,5.35559600999113,0.0021717180326316,2.1717180326316E-06,0.544332146644592,-1.03423845767974,1.57857060432434,,,,0.0297903708179918,0.0303007862337709
515882.206766272,5.67339576903032,0.00230058260569307,2.30058260569307E-06,0.545382320880889,-1.0344294309616,1.57981175184249,,,,0.0315580604347472,0.0320684758505263
515882.531566033,5.99819553003181,0.00243228433526886,2.43228433526886E-06,0.546413421630859,-1.03460121154785,1.58101463317871,,,,0.0333646685222066,0.0338750839379857
515882.889365768,6.35599526501028,0.00257736705214447,2.57736705214447E-06,0.547425389289856,-1.03473484516143,1.58216023445129,,,,0.0353548292475236,0.0358652446633027
515883.247765498,6.71439499501139,0.00272269382615884,2.72269382615884E-06,0.548437356948852,-1.03507852554321,1.58351588249206,,,,0.0373483378073915,0.0378587532231706
515883.609765229,7.0763947259984,0.00286948050040006,2.86948050040006E-06,0.549468457698822,-1.03515493869781,1.58462339639663,,,,0.0393618724334713,0.0398722878492505
515884.028564916,7.49519441300072,0.00303930158256822,3.03930158256822E-06,0.550556778907775,-1.03538393974304,1.58594071865081,,,,0.0416913797334461,0.0422017951492252
515884.46656459,7.93319408700336,0.00321690465050273,3.21690465050273E-06,0.551568746566772,-1.0356513261795,1.58722007274627,,,,0.0441276358093653,0.0446380512251444
515884.93096424,8.39759373699781,0.00340521307210789,3.40521307210789E-06,0.552580773830413,-1.03589951992034,1.58848029375076,,,,0.046710741729875,0.0472211571456542
515885.42736387,8.89399336703355,0.00360649750464492,3.60649750464492E-06,0.553611814975738,-1.03605222702026,1.589664041996,,,,0.0494718450568576,0.0499822604726367
515885.9261635,9.39279299700866,0.00380875599756505,3.80875599756505E-06,0.554642915725708,-1.03620493412017,1.59084784984588,,,,0.0522463099803162,0.0527567253960953
515886.424963129,9.89159262599424,0.00401101147782802,4.01101147782802E-06,0.555654883384704,-1.03645312786102,1.59210801124572,,,,0.0550207335778878,0.0555311489936669
515886.989162707,10.4557922040112,0.0042397909924719,4.2397909924719E-06,0.556685924530029,-1.03656768798828,1.59325361251831,,,,0.0581589985249918,0.0586694139407709
515887.583962263,11.050591760024,0.00448097786494758,4.48097786494758E-06,0.55769795179367,-1.03685402870178,1.59455198049545,,,,0.061467460424521,0.0619778758403001
515888.204561805,11.6711913020117,0.00473262470204962,4.73262470204962E-06,0.558748066425323,-1.03700673580169,1.59575480222702,,,,0.0649194060637808,0.0654298214795599
515888.84816133,12.3147908269893,0.00499359837902916,4.99359837902916E-06,0.559779167175293,-1.03721678256988,1.59699594974517,,,,0.0684992918934041,0.0690097073091832
515889.546560807,13.0131903039874,0.00527679230525758,5.27679230525758E-06,0.560791134834289,-1.0374459028244,1.59823703765869,,,,0.072383982239473,0.0728943976552521
515890.226360307,13.6929898040253,0.00555244609196318,5.55244609196318E-06,0.561803102493286,-1.03756046295166,1.59936356544494,,,,0.0761652413163674,0.0766756567321465
515891.026359701,14.4929891980137,0.00587683525146378,5.87683525146378E-06,0.562815070152282,-1.0378086566925,1.60062372684478,,,,0.0806150240255663,0.0811254394413454
515891.808159119,15.2747886159923,0.0061938441310856,6.1938441310856E-06,0.56386524438858,-1.03798043727874,1.60184568166732,,,,0.0849635683276488,0.085473983743428
515892.666758487,16.1333879840095,0.00654199458309676,6.54199458309676E-06,0.564896345138549,-1.0383813381195,1.60327768325805,,,,0.0897392946926853,0.0902497101084644
515893.506357861,16.9729873579927,0.0068824410806232,6.8824410806232E-06,0.565908312797546,-1.0384577512741,1.60436606407165,,,,0.0944093426697284,0.0949197580855075
515894.428357163,17.8949866599869,0.00725629982971482,7.25629982971482E-06,0.566920280456543,-1.03861045837402,1.60553073883056,,,,0.0995377205722198,0.100048135987999
515895.325556503,18.7921860000351,0.00762010979186826,7.62010979186826E-06,0.56797045469284,-1.03889691829681,1.60686737298965,,,,0.104528255032486,0.105038670448266
515896.366955718,19.833585215034,0.00804238696065214,8.04238696065214E-06,0.568982422351837,-1.03897321224212,1.60795563459396,,,,0.110320808788095,0.110831224203874
515897.384554972,20.8511844690074,0.00845501495382521,8.45501495382521E-06,0.570013523101806,-1.03922140598297,1.60923492908477,,,,0.115981000738343,0.116491416154122
515898.447954179,21.914583676029,0.00888621544145213,8.88621544145213E-06,0.571025490760803,-1.03943145275116,1.61045694351196,,,,0.121895959416353,0.122406374832132
515899.483553404,22.9501829009969,0.00930613340680466,9.30613340680466E-06,0.572037458419799,-1.03954601287841,1.61158347129821,,,,0.127656150984975,0.128166566400754
515900.643952535,24.1105820320081,0.00977667199314965,9.77667199314965E-06,0.573068559169769,-1.03977513313293,1.6128436923027,,,,0.134110726929351,0.13462114234513
515901.823551664,25.2901811610209,0.0102549815916154,1.02549815916154E-05,0.574080526828765,-1.0399659872055,1.61404651403427,,,,0.140671901119553,0.141182316535332
515903.003150782,26.4697802790324,0.0107333015245066,1.07333015245066E-05,0.575092494487762,-1.04006147384643,1.61515396833419,,,,0.147233217071421,0.1477436324872
515904.239549854,27.706179351022,0.0112346469051308,1.12346469051308E-05,0.576123535633087,-1.04029059410095,1.61641412973403,,,,0.154110382786431,0.15462079820221
515905.541148895,29.0077783919987,0.0117624374129772,1.17624374129772E-05,0.577154636383056,-1.04034781455993,1.61750245094299,,,,0.161350307448247,0.161860722864026
515906.896547874,30.3631773710367,0.012312037437121,1.2312037437121E-05,0.578166604042053,-1.0406150817871,1.61878168582916,,,,0.168889402429643,0.169399817845422
515908.199946912,31.6665764090139,0.0128405524598492,1.28405524598492E-05,0.579235851764679,-1.04084420204162,1.6200800538063,,,,0.176139265567204,0.176649680982984
515909.616945846,33.0835753430147,0.0134151256919105,1.34151256919105E-05,0.58024787902832,-1.04101610183715,1.62126398086547,,,,0.184020928558443,0.184531343974222
515910.978144845,34.4447743420024,0.0139670805327759,1.39670805327759E-05,0.581259846687316,-1.04105424880981,1.62231409549713,,,,0.191592325552481,0.192102740968261
515912.418543769,35.8851732659969,0.0145511456843084,1.45511456843084E-05,0.582290887832641,-1.04124510288238,1.62353599071502,,,,0.19960419320039,0.200114608616169
515913.87534268,37.3419721770333,0.015141860911462,1.5141860911462E-05,0.583360135555267,-1.04135966300964,1.62471979856491,,,,0.207707282736104,0.208217698151883
515915.39734154,38.8639710370335,0.0157590106348527,1.57590106348527E-05,0.584391236305236,-1.04156970977783,1.62596094608306,,,,0.216172985388926,0.216683400804705
515916.813140492,40.2797699890216,0.0163330960068305,1.63330960068305E-05,0.585403203964233,-1.04168426990509,1.62708747386932,,,,0.224047956197949,0.224558371613728
515918.313939374,41.7805688710068,0.0169416556499269,1.69416556499269E-05,0.586434304714202,-1.04177975654602,1.62821406126022,,,,0.232395825101878,0.232906240517657
515919.832538237,43.2991677339887,0.0175574283466074,1.75574283466074E-05,0.587446272373199,-1.0419133901596,1.6293596625328,,,,0.240842638499416,0.241353053915195
515921.333537118,44.8001666149939,0.0181660678362581,1.81660678362581E-05,0.588458240032196,-1.04210424423217,1.63056248426437,,,,0.249191602692155,0.249702018107934
515922.850535999,46.3171654960024,0.0187811855550011,1.87811855550011E-05,0.589470207691192,-1.0421233177185,1.63159352540969,,,,0.257629431481497,0.258139846897276
515924.350534881,47.8171643780079,0.0193894247558183,1.93894247558183E-05,0.59052038192749,-1.04216158390045,1.63268196582794,,,,0.265972904743735,0.266483320159514
515925.98913365,49.4557631469797,0.0200538556702335,2.00538556702335E-05,0.591532349586486,-1.0424860715866,1.63401842117309,,,,0.275087183405123,0.275597598820903
515927.50773253,50.9743620270165,0.0206696211655868,2.06696211655868E-05,0.592544317245483,-1.04250514507293,1.63504946231842,,,,0.283533898019023,0.284044313434802
515929.052131367,52.5187608639826,0.0212958517359892,2.12958517359892E-05,0.593575417995452,-1.04277253150939,1.63634794950485,,,,0.292124166474475,0.292634581890254
515930.6275302,54.0941596970079,0.0219346563788917,2.19346563788917E-05,0.594587385654449,-1.04273426532745,1.6373216509819,,,,0.300886918777664,0.301397334193443
515932.148129059,55.6147585560102,0.0225512394374476,2.25512394374476E-05,0.595637559890747,-1.04286789894104,1.63850545883178,,,,0.30934484825031,0.309855263666089
515933.626527965,57.093157462019,0.0231507127062214,2.31507127062214E-05,0.596649527549743,-1.04298245906829,1.63963198661804,,,,0.317568075531158,0.318078490946937
515935.124126848,58.5907563450164,0.0237579718494945,2.37579718494945E-05,0.59766149520874,-1.04311609268188,1.64077758789062,,,,0.325898104931338,0.326408520347117
515936.62332573,60.0899552269839,0.0243658880399531,2.43658880399531E-05,0.598673462867736,-1.04328799247741,1.64196145534515,,,,0.33423714732446,0.334747562740239
515938.044124675,61.5107541719917,0.0249420054829782,2.49420054829782E-05,0.599685490131378,-1.04332613945007,1.64301162958145,,,,0.342139992907794,0.342650408323573
515939.560323542,63.0269530389924,0.0255568047161764,2.55568047161764E-05,0.600716531276702,-1.04344069957733,1.64415723085403,,,,0.350573452896796,0.351083868312575
515940.966122494,64.4327519910294,0.0261268293856846,2.61268293856846E-05,0.601728498935699,-1.04353618621826,1.64526468515396,,,,0.358392721339981,0.35890313675576
515942.422921409,65.8895509060239,0.0267175477739042,2.67175477739042E-05,0.602759599685668,-1.04366981983184,1.64642941951751,,,,0.366495854237369,0.367006269653148
515943.879520328,67.3461498250254,0.0273081770301527,2.73081770301527E-05,0.603771567344665,-1.0437079668045,1.64747953414917,,,,0.374597764473974,0.375108179889753
515945.218919327,68.6855488240253,0.0278512980554037,2.78512980554037E-05,0.604879021644592,-1.04374611377716,1.64862513542175,,,,0.382047984299091,0.38255839971487
515946.71851821,70.1851477070013,0.0284593656850258,2.84593656850258E-05,0.605890989303588,-1.04387974739074,1.64977073669433,,,,0.390389104046993,0.390899519462772
515948.096717184,71.5633466810104,0.0290182137368586,2.90182137368586E-05,0.606902956962585,-1.04395616054534,1.65085911750793,,,,0.398055058118774,0.398565473534553
515949.338916254,72.8055457510054,0.0295219078980154,2.95219078980154E-05,0.607914924621582,-1.04387974739074,1.65179467201232,,,,0.404964443045479,0.405474858461258
515950.678315253,74.1449447500054,0.0300650230811105,3.00650230811105E-05,0.608926951885223,-1.04403257369995,1.65295952558517,,,,0.412414582731283,0.412924998147062
515951.936514322,75.4031438190141,0.0305752056789199,3.05752056789199E-05,0.60993891954422,-1.04408979415893,1.65402871370315,,,,0.419412972275993,0.419923387691772
515953.235313354,76.7019428510102,0.0311018545642693,3.11018545642693E-05,0.610950887203216,-1.04412794113159,1.6550788283348,,,,0.426637236821252,0.427147652237032
515954.475112436,77.9417419329984,0.0316045811218884,3.16045811218884E-05,0.611981987953186,-1.0441471338272,1.65612912178039,,,,0.433533348722749,0.434043764138528
515955.697111526,79.1637410229887,0.0321000864138801,3.21000864138801E-05,0.61301302909851,-1.04431891441345,1.65733194351196,,,,0.44033040348258,0.440840818898359
515956.933310597,80.3999400940375,0.0326013513718909,3.26013513718909E-05,0.61404412984848,-1.04443347454071,1.65847760438919,,,,0.447206466006734,0.447716881422513
515958.094709735,81.5613392320229,0.0330722886545525,3.30722886545525E-05,0.615075170993804,-1.04443347454071,1.65950864553451,,,,0.453666511036386,0.454176926452165
515959.254708873,82.72133837,0.0335426533989707,3.35426533989707E-05,0.616106271743774,-1.04439532756805,1.66050159931182,,,,0.460118702317842,0.460629117733621
515960.456507971,83.9231374679948,0.0340299665305349,3.40299665305349E-05,0.617156386375427,-1.04456710815429,1.66172349452972,,,,0.466803381763167,0.467313797178946
515961.492907196,84.9595366930007,0.0344502137964036,3.44502137964036E-05,0.618168413639068,-1.04456710815429,1.66273552179336,,,,0.472568090485646,0.473078505901425
515962.631906359,86.0985358559992,0.0349120668379531,3.49120668379531E-05,0.619180381298065,-1.04470074176788,1.66388112306594,,,,0.478903523154364,0.479413938570143
515963.711105542,87.177735039033,0.035349671179076,3.5349671179076E-05,0.620192348957061,-1.04473888874054,1.6649312376976,,,,0.484906326187599,0.485416741603379
515964.648304844,88.1149343409925,0.0357296963610053,3.57296963610053E-05,0.621204316616058,-1.04473888874054,1.66594320535659,,,,0.490119291646163,0.490629707061942
515965.671904088,89.1385335850064,0.0361447576719919,3.61447576719919E-05,0.622216284275054,-1.04475808143615,1.66697436571121,,,,0.49581286244159,0.496323277857369
515966.690703331,90.1573328280356,0.0365578737091885,3.65578737091885E-05,0.623228311538696,-1.04481530189514,1.66804361343383,,,,0.501479749097236,0.501990164513015
515967.629302633,91.0959321300034,0.0369384704862236,3.69384704862236E-05,0.624240279197692,-1.04491078853607,1.66915106773376,,,,0.506700555366579,0.507210970782358
515968.512701975,91.9793314720155,0.0372966833970347,3.72966833970347E-05,0.625252246856689,-1.0449298620224,1.67018210887908,,,,0.511614312716525,0.512124728132305
515969.470101259,92.9367307560169,0.0376849022831982,3.76849022831982E-05,0.626283288002014,-1.0449298620224,1.67121315002441,,,,0.516939674666642,0.517450090082421
515970.364900587,93.8315300840186,0.0380477352680232,3.80477352680232E-05,0.627295315265655,-1.04506349563598,1.67235881090164,,,,0.521916807517465,0.522427222933244
515971.223899955,94.6905294519966,0.0383960538791616,3.83960538791616E-05,0.62832635641098,-1.04512071609497,1.67344707250595,,,,0.526694840592066,0.527205256007845
515972.1044993,95.5711287970189,0.0387531240827573,3.87531240827573E-05,0.629376530647277,-1.04510164260864,1.67447817325592,,,,0.531592922945916,0.532103338361695
515972.969498652,96.4361281489837,0.0391038709224065,3.91038709224065E-05,0.630388498306274,-1.04510164260864,1.67549014091491,,,,0.536404265053587,0.536914680469366
515973.768298054,97.234927551006,0.0394277727198733,3.94277727198733E-05,0.631400465965271,-1.04519712924957,1.67659759521484,,,,0.540847362412528,0.541357777828307
515974.546497477,98.0131269739941,0.0397433275089859,3.97433275089859E-05,0.632450640201568,-1.04513990879058,1.67759054899215,,,,0.545175960342742,0.545686375758521
515975.283696929,98.7503264260013,0.04004225896632,4.004225896632E-05,0.633519887924194,-1.04515898227691,1.67867887020111,,,,0.549276529030453,0.549786944446232
515976.148696276,99.6153257730184,0.0403930083772341,4.03930083772341E-05,0.634550988674163,-1.04527354240417,1.67982453107833,,,,0.554087906409247,0.554598321825026
515976.863095747,100.329725244024,0.0406826942155029,4.06826942155029E-05,0.635582029819488,-1.0452162027359,1.68079823255538,,,,0.558061649046679,0.558572064462458
515977.522895252,100.989524748991,0.0409502404033276,4.09502404033276E-05,0.636613130569458,-1.04519712924957,1.68181025981903,,,,0.561731692775413,0.562242108191192
515978.243494716,101.710124213016,0.0412424417088892,4.12424417088892E-05,0.637625098228454,-1.04523527622222,1.68286037445068,,,,0.565739941137026,0.566250356552805
515978.96129418,102.427923677024,0.0415335052727593,4.15335052727593E-05,0.638656198978424,-1.04517805576324,1.68383425474166,,,,0.569732582616726,0.570242998032505
515979.54169376,103.008323257032,0.0417688526113562,4.17688526113562E-05,0.63966816663742,-1.0452162027359,1.68488436937332,,,,0.572960941170867,0.573471356586646
515980.222893249,103.689522746019,0.0420450715160767,4.20450715160767E-05,0.640680134296417,-1.04523527622222,1.68591541051864,,,,0.576749952209557,0.577260367625336
515980.839692785,104.306322282006,0.0422951789206464,4.22951789206464E-05,0.641692101955413,-1.04538810253143,1.68708020448684,,,,0.580180780804477,0.580691196220257
515981.441892342,104.90852183901,0.0425393621660934,4.25393621660934E-05,0.64270406961441,-1.04540717601776,1.68811124563217,,,,0.583530345213901,0.58404076062968
515982.059891877,105.526521374006,0.0427899534963369,4.27899534963369E-05,0.643754243850708,-1.04536890983581,1.68912315368652,,,,0.586967812021082,0.587478227436861
515982.620091458,106.086720955034,0.043017105580204,4.3017105580204E-05,0.644766211509704,-1.04531168937683,1.69007790088653,,,,0.59008375281487,0.590594168230649
515983.14229107,106.608920567029,0.0432288547491099,4.32288547491099E-05,0.645835518836975,-1.04544532299041,1.69128084182739,,,,0.592988405337584,0.593498820753364
515983.722890642,107.189520139014,0.0434642844632267,4.34642844632267E-05,0.646866559982299,-1.04536890983581,1.69223546981811,,,,0.596217893871423,0.596728309287202
515984.240490248,107.707119745028,0.0436741678128705,4.36741678128705E-05,0.647878527641296,-1.04546439647674,1.69334292411804,,,,0.599096952165576,0.599607367581355
515984.778889851,108.245519348013,0.0438924781586726,4.38924781586726E-05,0.648909628391265,-1.04546439647674,1.69437402486801,,,,0.602091607114851,0.60260202253063
515985.219489525,108.686119022022,0.0440711351761089,4.40711351761089E-05,0.64994066953659,-1.04546439647674,1.69540506601333,,,,0.60454232065993,0.605052736075709
515985.740289131,109.206918628013,0.0442823171927994,4.42823171927994E-05,0.65097177028656,-1.04544532299041,1.69641709327697,,,,0.607439193316864,0.607949608732643
515986.201288795,109.667918291991,0.044469252288964,4.4469252288964E-05,0.652002811431884,-1.04552173614502,1.6975245475769,,,,0.610003460753964,0.610513876169744
515986.662888455,110.12951795198,0.0446564289913376,4.46564289913376E-05,0.653014838695526,-1.04542624950408,1.69844108819961,,,,0.61257104240518,0.613081457820959
515987.119088104,110.585717601003,0.0448414122618767,4.48414122618767E-05,0.654026806354522,-1.04546439647674,1.69949120283126,,,,0.615108535828213,0.615618951243992
515987.539087804,111.005717300985,0.0450117144231332,4.50117144231332E-05,0.655038774013519,-1.04546439647674,1.70050317049026,,,,0.617444642292637,0.617955057708416
515987.956487482,111.423116979015,0.045180964231438,4.5180964231438E-05,0.656069815158844,-1.04546439647674,1.70153421163559,,,,0.61976631318845,0.620276728604229
515988.337687196,111.804316692986,0.0453355385284225,4.53355385284225E-05,0.657100915908813,-1.04542624950408,1.7025271654129,,,,0.621886673915261,0.62239708933104
515988.757886895,112.224516391987,0.0455059267876545,4.55059267876545E-05,0.658170163631439,-1.04552173614502,1.70369189977645,,,,0.624223961421872,0.624734376837652
515989.158086591,112.624716088001,0.0456682051451537,4.56682051451537E-05,0.659220337867736,-1.04540717601776,1.70462751388549,,,,0.626450001991135,0.626960417406914
515989.537886313,113.004515809997,0.0458222101600103,4.58222101600103E-05,0.660232305526733,-1.04544532299041,1.70567762851715,,,,0.628562553635258,0.629072969051037
515989.894286038,113.360915535013,0.0459667248311506,4.59667248311506E-05,0.66124427318573,-1.04544532299041,1.70668959617614,,,,0.630544922238006,0.631055337653785
515990.237085783,113.703715279989,0.0461057246137857,4.61057246137857E-05,0.662256300449371,-1.04554080963134,1.70779711008071,,,,0.632451640792671,0.63296205620845
515990.570485545,114.037115041981,0.0462409140908718,4.62409140908718E-05,0.663268268108367,-1.04561710357666,1.70888537168502,,,,0.634306091781506,0.634816507197285
515990.898085286,114.364714783034,0.0463737524560623,4.63737524560623E-05,0.664299309253692,-1.04544532299041,1.70974463224411,,,,0.636128291578358,0.636638706994137
515991.216685054,114.683314551017,0.0465029421162406,4.65029421162406E-05,0.665311276912689,-1.0455025434494,1.71081382036209,,,,0.637900440551997,0.638410855967777
515991.496884846,114.963514343021,0.0466165617441137,4.66165617441137E-05,0.66632330417633,-1.04552173614502,1.71184504032135,,,,0.639459008835579,0.639969424251358
515991.831084596,115.297714093002,0.0467520770428445,4.67520770428445E-05,0.667335271835327,-1.04559803009033,1.71293330192565,,,,0.641317929257126,0.641828344672905
515992.114084383,115.580713880016,0.0468668296789195,4.68668296789195E-05,0.668347239494323,-1.04544532299041,1.71379256248474,,,,0.642892039491351,0.64340245490713
515992.393684176,115.86031367298,0.0469802056662705,4.69802056662705E-05,0.669378280639648,-1.0455025434494,1.71488082408905,,,,0.644447265655288,0.644957681071067
515992.674083968,116.140713464993,0.0470939044837885,4.70939044837885E-05,0.670390307903289,-1.04536890983581,1.7157592177391,,,,0.646006920216578,0.646517335632357
515992.936283774,116.402913270984,0.0472002244161036,4.72002244161036E-05,0.671459555625915,-1.04546439647674,1.71692395210266,,,,0.647465355502107,0.647975770917886
515993.195483589,116.662113086029,0.0473053269056147,4.73053269056147E-05,0.672509729862213,-1.04538810253143,1.71789783239364,,,,0.648907090611999,0.649417506027778
515993.456883383,116.923512879992,0.0474113228635191,4.74113228635191E-05,0.673540771007537,-1.04546439647674,1.71900516748428,,,,0.650361081804103,0.650871497219882
515993.695083216,117.161712713016,0.0475079109977351,4.75079109977351E-05,0.674552738666534,-1.04536890983581,1.71992164850235,,,,0.651686021916805,0.652196437332584
515993.93388303,117.400512527034,0.0476047423310412,4.76047423310412E-05,0.675583839416503,-1.04538810253143,1.72097194194793,,,,0.653014298093844,0.653524713509623
515994.172882853,117.639512350026,0.0477016557534933,4.77016557534933E-05,0.6765958070755,-1.04533076286315,1.72192656993866,,,,0.654343700322268,0.654854115738047
515994.374482703,117.841112199996,0.0477834022479454,4.77834022479454E-05,0.677607774734497,-1.04533076286315,1.72293853759765,,,,0.655465051412146,0.655975466827925
515994.612882522,118.079512019001,0.0478800727082424,4.78800727082424E-05,0.678619742393493,-1.04536890983581,1.7239886522293,,,,0.65679112082637,0.65730153624215
515994.814682377,118.281311873987,0.0479618987916178,4.79618987916178E-05,0.679650843143463,-1.04536890983581,1.72501975297927,,,,0.657913563671026,0.658423979086805
515995.01288223,118.479511726997,0.0480422659919261,4.80422659919261E-05,0.680681884288787,-1.04536890983581,1.7260507941246,,,,0.659015994402279,0.659526409818058
515995.214882075,118.68151157198,0.0481241739385326,4.81241739385326E-05,0.681693911552429,-1.04527354240417,1.7269674539566,,,,0.66013956019935,0.660649975615129
515995.395481938,118.862111434981,0.0481974058058791,4.81974058058791E-05,0.682724952697753,-1.04515898227691,1.72788393497467,,,,0.661144112563499,0.661654527979279
515995.574081813,119.040711309994,0.0482698256231016,4.82698256231016E-05,0.68373692035675,-1.04519712924957,1.72893404960632,,,,0.662137525694123,0.662647941109903
515995.773281654,119.239911151002,0.0483505982974502,4.83505982974502E-05,0.68476802110672,-1.04525434970855,1.73002237081527,,,,0.663245518483542,0.663755933899321
515995.938281539,119.404911036021,0.0484175045896503,4.84175045896503E-05,0.685779988765716,-1.04536890983581,1.73114889860153,,,,0.664163300269551,0.664673715685331
515996.116681398,119.583310895017,0.0484898449381921,4.84898449381921E-05,0.686791956424713,-1.0452926158905,1.73208457231521,,,,0.665155623294816,0.665666038710595
515996.275281283,119.741910780023,0.0485541563369896,4.85541563369896E-05,0.687803924083709,-1.0452162027359,1.73302012681961,,,,0.666037809835248,0.666548225251027
515996.432481166,119.899110662984,0.0486178991352385,4.86178991352385E-05,0.688815951347351,-1.04519712924957,1.73401308059692,,,,0.666912196642504,0.667422612058283
515996.59288105,120.059510547027,0.0486829393397172,4.86829393397172E-05,0.689827919006347,-1.04525434970855,1.7350822687149,,,,0.667804380517383,0.668314795933162
515996.750880934,120.217510431015,0.0487470069072379,4.87470069072379E-05,0.690839886665344,-1.0452926158905,1.73613250255584,,,,0.668683222321508,0.669193637737287
515996.892280826,120.358910323004,0.0488043430300686,4.88043430300686E-05,0.69185185432434,-1.04512071609497,1.73697257041931,,,,0.669469726064041,0.66998014147982
515997.031480724,120.498110221,0.0488607867970267,4.88607867970267E-05,0.692863821983337,-1.04515898227691,1.73802280426025,,,,0.670243988985277,0.670754404401056
515997.172080619,120.638710116036,0.0489177986380722,4.89177986380722E-05,0.693913996219635,-1.04519712924957,1.7391111254692,,,,0.671026044418,0.671536459833779
515997.295080529,120.76171002601,0.0489676732600728,4.89676732600728E-05,0.694964170455932,-1.04504442214965,1.74000859260559,,,,0.671710195611424,0.672220611027203
515997.451080413,120.91770991002,0.0490309290847778,4.90309290847778E-05,0.695995271205902,-1.04512071609497,1.74111598730087,,,,0.672577902397501,0.67308831781328
515997.574080323,121.040709819994,0.0490808031276596,4.90808031276596E-05,0.697026312351226,-1.04496800899505,1.74199432134628,,,,0.673262045646908,0.673772461062687
515997.692480234,121.15910973103,0.0491288128804432,4.91288128804432E-05,0.698038280010223,-1.04498708248138,1.7430253624916,,,,0.67392061564394,0.674431031059719
515997.814080142,121.280709639017,0.0491781188844574,4.91781188844574E-05,0.699069380760192,-1.04508256912231,1.7441519498825,,,,0.674596966864985,0.675107382280764
515997.937080049,121.403709546023,0.0492279937537776,4.92279937537776E-05,0.700081348419189,-1.04504442214965,1.74512577056884,,,,0.675281121450996,0.675791536866775
515998.050679961,121.517309457995,0.0492740568092862,4.92740568092862E-05,0.701112389564514,-1.04517805576324,1.74629044532775,,,,0.675912987781704,0.676423403197483
515998.154279886,121.620909382997,0.0493160656819807,4.93160656819807E-05,0.702124416828155,-1.04496800899505,1.74709242582321,,,,0.676489241179434,0.676999656595213
515998.269479798,121.736109294987,0.0493627779191335,4.93627779191335E-05,0.70315545797348,-1.04506349563598,1.74821895360946,,,,0.677130012608141,0.67764042802392
515998.371679724,121.838309221028,0.0494042199962933,4.94042199962933E-05,0.704167425632476,-1.0449298620224,1.74909728765487,,,,0.67769849103283,0.678208906448609
515998.473479652,121.940109149029,0.0494454995512035,4.94454995512035E-05,0.705236732959747,-1.04500615596771,1.75024288892746,,,,0.678264740071379,0.678775155487158
515998.578479571,122.045109067985,0.0494880755056473,4.94880755056473E-05,0.706267774105072,-1.0449298620224,1.75119763612747,,,,0.678848772368276,0.679359187784055
515998.677079493,122.143708990014,0.0495280570186045,4.95280570186045E-05,0.707279741764068,-1.04506349563598,1.75234323740005,,,,0.679397215618718,0.679907631034497
515998.77247942,122.239108917012,0.0495667403378354,4.95667403378354E-05,0.708329916000366,-1.04489171504974,1.75322163105011,,,,0.679927850999114,0.680438266414893
515998.870679351,122.337308847986,0.0496065589823391,4.96065589823391E-05,0.709418296813964,-1.04489171504974,1.7543100118637,,,,0.680474060114391,0.68098447553017
515998.95447929,122.421108787006,0.0496405385203361,4.96405385203361E-05,0.710430264472961,-1.04487252235412,1.75530278682708,,,,0.680940171746723,0.681450587162502
515999.049879217,122.516508714005,0.0496792222987082,4.96792222987082E-05,0.711442232131958,-1.04471981525421,1.75616204738616,,,,0.681470813425353,0.681981228841132
515999.128679163,122.595308660006,0.049711174625304,4.9711174625304E-05,0.712454199790954,-1.04483437538147,1.75728857517242,,,,0.681909116945185,0.682419532360964
515999.209479095,122.676108592015,0.0497439378329581,4.97439378329581E-05,0.713485300540924,-1.04489171504974,1.75837701559066,,,,0.682358543661977,0.682868959077756
515999.290679046,122.757308543019,0.049776863004797,4.9776863004797E-05,0.71449726819992,-1.04473888874054,1.75923615694046,,,,0.682810192109698,0.683320607525477
515999.367278976,122.833908473025,0.0498079234240452,4.98079234240452E-05,0.715509235858917,-1.04481530189514,1.76032453775405,,,,0.68323626096084,0.683746676376619
515999.44707893,122.91370842699,0.0498402817191481,4.98402817191481E-05,0.716521203517913,-1.04494893550872,1.76147013902664,,,,0.683680133321648,0.684190548737427
515999.515878872,122.982508369023,0.0498681794426507,4.98681794426507E-05,0.717552304267883,-1.04479622840881,1.76234853267669,,,,0.684062818143357,0.684573233559136
515999.589478815,123.056108311983,0.0498980232630438,4.98980232630438E-05,0.718564271926879,-1.04470074176788,1.76326501369476,,,,0.684472198395663,0.684982613811442
515999.665278768,123.131908265001,0.0499287603647046,4.99287603647046E-05,0.719633519649505,-1.04481530189514,1.76444882154464,,,,0.6848938321633,0.68540424757908
515999.731678715,123.198308211984,0.0499556850309372,4.99556850309372E-05,0.720645487308502,-1.04452896118164,1.76517444849014,,,,0.685263169148659,0.685773584564438
515999.795078666,123.261708163016,0.0499813933315078,4.99813933315078E-05,0.721714735031127,-1.04460525512695,1.76631999015808,,,,0.685615820733989,0.686126236149768
515999.870678606,123.337308102986,0.0500120480507016,5.00120480507016E-05,0.722726762294769,-1.04462432861328,1.76735109090805,,,,0.686036324426634,0.686546739842413
515999.932278559,123.398908056028,0.0500370263904929,5.00370263904929E-05,0.723796010017395,-1.04458618164062,1.76838219165802,,,,0.68637896283255,0.686889378248329
515999.994678512,123.461308008991,0.0500623284681836,5.00623284681836E-05,0.724827051162719,-1.04447162151336,1.76929867267608,,,,0.686726042087567,0.687236457503346
516000.054678464,123.521307961026,0.050086657905413,5.0086657905413E-05,0.725839078426361,-1.04441440105438,1.77025347948074,,,,0.687059779223772,0.687570194639551
516000.117678418,123.584307915007,0.0501122035494248,5.01122035494248E-05,0.726851046085357,-1.04458618164062,1.77143722772598,,,,0.687410199580587,0.687920614996366
516000.175278378,123.641907875019,0.050135559537318,5.0135559537318E-05,0.727958500385284,-1.04447162151336,1.77243012189865,,,,0.687730583502305,0.688240998918084
516000.236678334,123.70330783102,0.0501604566035933,5.01604566035933E-05,0.728970468044281,-1.04443347454071,1.77340394258499,,,,0.688072107045176,0.688582522460955
516000.291878299,123.758507795981,0.0501828396401272,5.01828396401272E-05,0.729982435703277,-1.04447162151336,1.77445405721664,,,,0.688379144583364,0.688889559999143
516000.350078256,123.816707752994,0.0502064389965733,5.02064389965733E-05,0.731051683425903,-1.04449069499969,1.77554237842559,,,,0.68870286689401,0.689213282309789
516000.408878209,123.87550770602,0.0502302819793025,5.02302819793025E-05,0.732082784175872,-1.04452896118164,1.77661174535751,,,,0.689029931128978,0.689540346544757
516000.451878177,123.91850767401,0.0502477181240254,5.02477181240254E-05,0.73313295841217,-1.04437613487243,1.7775090932846,,,,0.689269110068936,0.689779525484715
516000.508878139,123.975507636031,0.0502708310012949,5.02708310012949E-05,0.734163999557495,-1.04447162151336,1.77863562107086,,,,0.689586159139848,0.690096574555627
516000.556678093,124.023307589989,0.0502902139351699,5.02902139351699E-05,0.735175967216491,-1.04441440105438,1.77959036827087,,,,0.689852043006446,0.690362458422225
516000.611278055,124.077907552011,0.0503123535290824,5.03123535290824E-05,0.736245214939117,-1.04441440105438,1.7806596159935,,,,0.690155741139676,0.690666156555455
516000.66687802,124.133507516992,0.050334898943199,5.0334898943199E-05,0.737276315689086,-1.04447162151336,1.78174793720245,,,,0.690465006079547,0.690975421495327
516000.709277978,124.175907475001,0.0503520916947192,5.03520916947192E-05,0.738288283348083,-1.04431891441345,1.78260719776153,,,,0.690700846292445,0.691211261708224
516000.753077953,124.219707450015,0.0503698516974316,5.03698516974316E-05,0.73930025100708,-1.04420435428619,1.78350460529327,,,,0.690944467728829,0.691454883144608
516000.804677905,124.271307401999,0.0503907742899192,5.03907742899192E-05,0.740312278270721,-1.04450988769531,1.78482216596603,,,,0.691231471741004,0.691741887156783
516000.848477883,124.315107379982,0.0504085347200102,5.04085347200102E-05,0.741362392902374,-1.04426169395446,1.78562408685684,,,,0.691475099039921,0.6919855144557
516000.889077851,124.355707348033,0.0504249975744221,5.04249975744221E-05,0.742431700229644,-1.04424250125885,1.78667420148849,,,,0.691700926946805,0.692211342362584
516000.932477814,124.399107311037,0.0504425957964658,5.04425957964658E-05,0.743443667888641,-1.04426169395446,1.7877053618431,,,,0.691942329169627,0.692452744585406
516000.97467779,124.441307287023,0.0504597075146569,5.04597075146569E-05,0.744455635547637,-1.04416620731353,1.78862184286117,,,,0.692177057814224,0.692687473230003
516001.01267776,124.479307256988,0.0504751162042021,5.04751162042021E-05,0.745486676692962,-1.04420435428619,1.78969103097915,,,,0.692388425297697,0.692898840713476
516001.06147772,124.528107216989,0.0504949041812353,5.04949041812353E-05,0.746517777442932,-1.04437613487243,1.79089391231536,,,,0.69265986531187,0.693170280727649
516001.098277696,124.564907193009,0.0505098260101941,5.05098260101941E-05,0.747548878192901,-1.04422342777252,1.79177230596542,,,,0.69286455432365,0.693374969739429
516001.139877663,124.606507160002,0.0505266943103936,5.05266943103936E-05,0.748579919338226,-1.04431891441345,1.79289883375167,,,,0.693095943901147,0.693606359316926
516001.177877629,124.64450712601,0.0505421027209825,5.05421027209825E-05,0.749611020088195,-1.04422342777252,1.79383444786071,,,,0.693307307558059,0.693817722973838
516001.214077604,124.680707101012,0.0505567814145419,5.05567814145419E-05,0.750622987747192,-1.04412794113159,1.79475092887878,,,,0.693508661379176,0.694019076794955
516001.25307758,124.71970707702,0.0505725954051282,5.05725954051282E-05,0.751654028892517,-1.04403257369995,1.79568660259246,,,,0.693725588547712,0.694236003963491
516001.292077554,124.758707050991,0.0505884087423748,5.05884087423748E-05,0.752665996551513,-1.04403257369995,1.79669857025146,,,,0.693942506754113,0.694452922169892
516001.327877523,124.794507020037,0.0506029258636766,5.06029258636766E-05,0.753678023815155,-1.04422342777252,1.79790145158767,,,,0.69414164422053,0.694652059636309
516001.365277489,124.831906986015,0.0506180911777549,5.06180911777549E-05,0.754689991474151,-1.04416620731353,1.79885619878768,,,,0.694349673220232,0.694860088636011
516001.401677465,124.868306962017,0.0506328508340385,5.06328508340385E-05,0.755721032619476,-1.04418528079986,1.79990631341934,,,,0.694552137641132,0.695062553056911
516001.431677441,124.898306938005,0.0506450154590474,5.06450154590474E-05,0.756733000278472,-1.04405164718627,1.80078464746475,,,,0.694719004925204,0.695229420340984
516001.467877418,124.934506914986,0.0506596945481565,5.06596945481565E-05,0.757802307605743,-1.04416620731353,1.80196851491928,,,,0.694920364172243,0.695430779588022
516001.505877395,124.972506891994,0.0506751038133833,5.06751038133833E-05,0.75881427526474,-1.0440707206726,1.80288499593734,,,,0.695131739552583,0.695642154968362
516001.533677371,125.000306867994,0.0506863764815926,5.06863764815926E-05,0.759826242923736,-1.04401350021362,1.80383974313736,,,,0.695286371489611,0.69579678690539
516001.569077348,125.035706844996,0.0507007312112252,5.07007312112252E-05,0.760838210582733,-1.04405164718627,1.80488985776901,,,,0.695483281361114,0.695993696776893
516001.604277322,125.070906819019,0.0507150042011141,5.07150042011141E-05,0.761850178241729,-1.04416620731353,1.80601638555526,,,,0.69567906997413,0.696189485389909
516001.630277301,125.096906798019,0.0507255469509959,5.07255469509959E-05,0.762881278991699,-1.04403257369995,1.80691385269165,,,,0.695823689314073,0.696334104729852
516001.663477279,125.130106776021,0.0507390093564987,5.07390093564987E-05,0.763912320137023,-1.04401350021362,1.80792582035064,,,,0.696008358799708,0.696518774215487
516001.694277255,125.160906751989,0.0507514986270798,5.07514986270798E-05,0.764924347400665,-1.04384160041809,1.80876594781875,,,,0.696179679383811,0.69669009479959
516001.726877233,125.193506730022,0.0507647175864378,5.07647175864378E-05,0.76595538854599,-1.04393708705902,1.80989247560501,,,,0.696361009416156,0.696871424831936
516001.755077208,125.221706704993,0.0507761525650885,5.07761525650885E-05,0.766967356204986,-1.04393708705902,1.810904443264,,,,0.696517867833862,0.697028283249641
516001.785277184,125.251906680991,0.0507883987249997,5.07883987249997E-05,0.767998456954956,-1.04416620731353,1.81216466426849,,,,0.696685853566526,0.697196268982305
516001.812477161,125.27910665801,0.0507994283072551,5.07994283072551E-05,0.769010424613952,-1.04391801357269,1.81292843818664,,,,0.696837150991154,0.697347566406933
516001.845277138,125.311906635005,0.0508127282893591,5.08127282893591E-05,0.770041525363922,-1.04410886764526,1.81415039300918,,,,0.697019592446627,0.697530007862406
516001.871477116,125.338106613024,0.0508233521961834,5.08233521961834E-05,0.771091639995575,-1.04384160041809,1.81493324041366,,,,0.697165325050527,0.697675740466306
516001.905677092,125.372306589037,0.0508372197402848,5.08372197402848E-05,0.772141814231872,-1.04401350021362,1.81615531444549,,,,0.697355551992933,0.697865967408712
516001.931277068,125.397906564991,0.0508476002680394,5.08476002680394E-05,0.773153781890869,-1.04391801357269,1.81707179546356,,,,0.697497946063641,0.69800836147942
516001.956477051,125.423106548027,0.0508578180474307,5.08578180474307E-05,0.774184882640838,-1.04380345344543,1.81798833608627,,,,0.697638107646512,0.698148523062291
516001.988077027,125.454706524033,0.0508706313525504,5.08706313525504E-05,0.775349617004394,-1.0437843799591,1.8191339969635,,,,0.69781387314884,0.698324288564619
516002.016477009,125.483106505999,0.0508821466616789,5.08821466616789E-05,0.776361584663391,-1.04389894008636,1.82026052474975,,,,0.697971833493538,0.698482248909317
516002.043476993,125.510106489994,0.0508930946454472,5.08930946454472E-05,0.777373552322387,-1.04391801357269,1.82129156589508,,,,0.698122011597355,0.698632427013134
516002.069676976,125.536306473019,0.0509037186653481,5.09037186653481E-05,0.778385519981384,-1.04384160041809,1.82222712039947,,,,0.698267745752375,0.698778161168154
516002.092876952,125.559506449034,0.0509131262664927,5.09131262664927E-05,0.779397547245025,-1.04368889331817,1.8230864405632,,,,0.69839679377905,0.698907209194829
516002.123476929,125.590106425982,0.0509255343412293,5.09255343412293E-05,0.78042858839035,-1.04391801357269,1.82434660196304,,,,0.69856700056556,0.699077415981339
516002.148076904,125.614706401015,0.0509355092323819,5.09355092323819E-05,0.781516969203949,-1.04386067390441,1.82537764310836,,,,0.698703830348174,0.699214245763953
516002.171276895,125.637906391989,0.050944916893608,5.0944916893608E-05,0.782528936862945,-1.04374611377716,1.8262750506401,,,,0.698832879199012,0.699343294614792
516002.200476875,125.667106372013,0.0509567574345999,0.0000509567574345999,0.783579111099243,-1.04389894008636,1.8274780511856,,,,0.698995300886144,0.699505716301923
516002.225276859,125.69190635602,0.0509668133238554,5.09668133238554E-05,0.784591078758239,-1.04393708705902,1.82852816581726,,,,0.699133241753846,0.699643657169626
516002.249276836,125.715906333004,0.0509765455388161,5.09765455388161E-05,0.785622119903564,-1.04380345344543,1.82942557334899,,,,0.69926674264494,0.699777158060719
516002.271076815,125.737706312037,0.0509853853272398,5.09853853272398E-05,0.786634147167205,-1.04365074634552,1.83028489351272,,,,0.699388001745402,0.699898417161181
516002.294676804,125.761306300992,0.0509949546243151,5.09949546243151E-05,0.787646114826202,-1.04372704029083,1.83137315511703,,,,0.699519267823253,0.700029683239032
516002.32047679,125.787106287025,0.0510054161324832,5.10054161324832E-05,0.788677155971527,-1.04374611377716,1.83242326974868,,,,0.699662772736395,0.700173188152174
516002.345076766,125.81170626299,0.0510153911826676,5.10153911826676E-05,0.789727330207824,-1.04395616054534,1.83368349075317,,,,0.699799604700516,0.700310020116295
516002.366276742,125.832906239026,0.0510239874083267,5.10239874083267E-05,0.790739297866821,-1.04387974739074,1.83461904525756,,,,0.699917522747966,0.700427938163745
516002.388276735,125.85490623198,0.0510329084067013,5.10329084067013E-05,0.791751265525817,-1.0437843799591,1.83553564548492,,,,0.700039895839524,0.700550311255303
516002.410676719,125.877306215989,0.051041991266946,5.1041991266946E-05,0.792801439762115,-1.04366981983184,1.83647125959396,,,,0.700164489258519,0.700674904674298
516002.432476696,125.899106192985,0.0510508305149807,5.10508305149807E-05,0.793813467025756,-1.0436315536499,1.83744502067565,,,,0.700285740946237,0.700796156362017
516002.454476682,125.921106179012,0.051059751075387,5.1059751075387E-05,0.794882714748382,-1.0436315536499,1.83851426839828,,,,0.70040810803,0.700918523445779
516002.476476674,125.943106171035,0.0510686716040108,5.10686716040108E-05,0.795913755893707,-1.04376530647277,1.83967906236648,,,,0.700530474677789,0.701040890093568
516002.50127665,125.967906147009,0.051078728005343,5.1078728005343E-05,0.796963930130004,-1.04386067390441,1.84082460403442,,,,0.700668422569863,0.701178837985642
516002.524476626,125.991106123023,0.0510881352886359,5.10881352886359E-05,0.798052310943603,-1.04391801357269,1.84197032451629,,,,0.700797466236432,0.701307881652211
516002.546276615,126.01290611201,0.0510969747486379,5.10969747486379E-05,0.7990642786026,-1.04382252693176,1.84288680553436,,,,0.700918720831796,0.701429136247575
516002.565876602,126.032506099029,0.0511049221105178,5.11049221105178E-05,0.800095319747924,-1.04372704029083,1.84382236003875,,,,0.701027738141534,0.701538153557313
516002.566476602,126.033106098999,0.0511051654754943,5.11051654754943E-05,0.800152599811554,-1.04382252693176,1.84397512674331,,,,0.701031076481403,0.701541491897183
516002.566676602,126.033306099009,0.0511052465971509,5.11052465971509E-05,0.800095319747924,-1.0437079668045,1.84380328655242,,,,0.701032189261329,0.701542604677108
