time/s,reltime/s,C/mA.h,C/A.h,Ewe/V,Ece/V,Ewe-Ece/V
516002.567276602,0.0,0.0,0.0,0.723756790161132,-1.0332988500595,1.75705564022064
516002.567476602,0.00019999995129182935,8.07377364900377e-08,8.07377364900377e-11,0.683337688446044,-1.02519989013671,1.70853757858276
516002.567676602,0.0003999999607913196,1.61542581187354e-07,1.61542581187354e-10,0.666266024112701,-1.02044963836669,1.6867156624794
516002.567876602,0.0005999999702908099,2.42386274867587e-07,2.42386274867587e-10,0.65889573097229,-1.01724219322204,1.67613792419433
516002.568076602,0.0007999999797903001,3.23258227772182e-07,3.23258227772182e-10,0.654523253440856,-1.01575303077697,1.67027628421783
516002.568276602,0.0009999999892897904,4.04116054375966e-07,4.04116054375966e-10,0.651735544204711,-1.01449298858642,1.66622853279113
516002.568476602,0.0011999999987892807,4.8504098256429e-07,4.8504098256429e-10,0.649730682373046,-1.01353847980499,1.66326916217804
516002.568676603,0.0014000009978190064,5.65902339087592e-07,5.659023390875919e-10,0.647954940795898,-1.01271748542785,1.66067242622375
516002.568876603,0.0016000009491108358,6.46784888373481e-07,6.46784888373481e-10,0.64671379327774,-1.01208746433258,1.65880125761032
516002.569076603,0.001800000958610326,7.27692160341474e-07,7.27692160341474e-10,0.64539635181427,-1.01155292987823,1.6569492816925
516002.569476603,0.0022000009776093066,8.89549083179897e-07,8.89549083179897e-10,0.643620610237121,-1.01057922840118,1.6541998386383
516002.569876603,0.002600000996608287,1.05137068695492e-06,1.05137068695492e-09,0.64192122220993,-1.00981557369232,1.65173679590225
516002.570276604,0.0030000019469298422,1.21322054333157e-06,1.21322054333157e-09,0.64054650068283,-1.00916647911071,1.64971297979354
516002.570676603,0.0034000009763985872,1.37500329812367e-06,1.3750032981236702e-09,0.639190793037414,-1.00878465175628,1.6479754447937
516002.571076602,0.0037999999476596713,1.53676839007271e-06,1.5367683900727101e-09,0.6379114985466,-1.00824999809265,1.64616149663925
516002.571476602,0.004199999966658652,1.69860765669081e-06,1.6986076566908099e-09,0.636727690696716,-1.0080782175064,1.64480590820312
516002.572076601,0.004799998947419226,1.94133300251431e-06,1.94133300251431e-09,0.635123789310455,-1.00760090351104,1.6427246928215
516002.5724766,0.005199997976887971,2.10317226250966e-06,2.1031722625096602e-09,0.633978188037872,-1.00737178325653,1.6413499712944
516002.572876599,0.005599996948149055,2.26500446266598e-06,2.26500446266598e-09,0.632947087287902,-1.00710451602935,1.64005160331726
516002.573476598,0.0061999959871172905,2.50770508580737e-06,2.50770508580737e-09,0.631476879119873,-1.00693273544311,1.63840961456298
516002.574076597,0.006799994967877865,2.75049046675364e-06,2.7504904667536403e-09,0.6300830245018,-1.00660812854766,1.63669115304946
516002.574676596,0.007399993948638439,2.99327938424216e-06,2.9932793842421597e-09,0.628670036792755,-1.00641727447509,1.63508731126785
516002.575276595,0.007999992987606674,3.23600825998518e-06,3.23600825998518e-09,0.627238035202026,-1.00611174106597,1.633349776268
516002.575876594,0.008599991968367249,3.47874066564771e-06,3.47874066564771e-09,0.625825047492981,-1.00603544712066,1.63186049461364
516002.576276593,0.008999990997835994,3.64055167304145e-06,3.6405516730414496e-09,0.624813079833984,-1.00582540035247,1.63063848018646
516002.576876592,0.009599989978596568,3.88331233130561e-06,3.88331233130561e-09,0.623686552047729,-1.00574898719787,1.6294355392456
516002.577476591,0.010199988959357142,4.12604120704862e-06,4.126041207048619e-09,0.622521817684173,-1.00567269325256,1.62819451093673
516002.57807659,0.010799987998325378,4.36880186531278e-06,4.3688018653127805e-09,0.621261596679687,-1.0054817199707,1.62674331665039
516002.57867659,0.011399987968616188,4.61157311995824e-06,4.61157311995824e-09,0.619963228702545,-1.00534808635711,1.62531131505966
516002.579276589,0.011999986949376762,4.85430199570125e-06,4.85430199570125e-09,0.618798494338989,-1.00525259971618,1.62405109405517
516002.579876588,0.012599985988344997,5.09704146782557e-06,5.09704146782557e-09,0.617500126361846,-1.00530993938446,1.6228100657463
516002.580476587,0.013199984969105572,5.33975268072552e-06,5.3397526807255195e-09,0.616354465484619,-1.00513803958892,1.62149250507354
516002.581076586,0.013799983949866146,5.58250627915064e-06,5.58250627915064e-09,0.615189731121063,-1.00521445274353,1.62040418386459
516002.581676585,0.014399982988834381,5.82528813017739e-06,5.82528813017739e-09,0.614063203334808,-1.00502359867095,1.61908680200576
516002.582476584,0.015199981979094446,6.14892427126566e-06,6.1489242712656605e-09,0.612535655498504,-1.00492811203002,1.61746376752853
516002.583076583,0.01579998095985502,6.3916213578648e-06,6.3916213578648e-09,0.61144733428955,-1.00488996505737,1.61633729934692
516002.583876581,0.01659997896058485,6.71529281801647e-06,6.715292818016469e-09,0.610168039798736,-1.00475621223449,1.61492425203323
516002.58447658,0.017199977999553084,6.95803228351804e-06,6.95803228351804e-09,0.608965098857879,-1.00456535816192,1.6135304570198
516002.585276579,0.01799997698981315,7.28169668383068e-06,7.28169668383068e-09,0.607628524303436,-1.00456535816192,1.61219388246536
516002.586076578,0.018799975980073214,7.60535754760106e-06,7.60535754760106e-09,0.606406509876251,-1.00452721118927,1.61093372106552
516002.586876579,0.01959997694939375,7.92896543608771e-06,7.928965436087711e-09,0.605165421962738,-1.00448894500732,1.60965436697006
516002.587476579,0.02019997697789222,8.17168371544943e-06,8.17168371544943e-09,0.604038894176483,-1.00443172454834,1.60847061872482
516002.58827658,0.020999977947212756,8.49536930190192e-06,8.49536930190192e-09,0.602912366390228,-1.00439357757568,1.60730594396591
516002.58907658,0.021799977985210717,8.81911846664216e-06,8.81911846664216e-09,0.601594865322113,-1.00433623790741,1.60593110322952
516002.58987658,0.022599977965001017,9.14272282520929e-06,9.142722825209291e-09,0.600506484508514,-1.00424075126647,1.60474723577499
516002.59067658,0.023399977944791317,9.46633071369594e-06,9.46633071369594e-09,0.599379956722259,-1.00403082370758,1.60341078042984
516002.591476579,0.024199976993259043,9.78998098108503e-06,9.78998098108503e-09,0.598157942295074,-1.00414538383483,1.60230332612991
516002.592276579,0.024999976973049343,1.01137054231431e-05,1.01137054231431e-08,0.597088694572448,-1.00410711765289,1.60119581222534
516002.593076579,0.025799976952839643,1.04373698234558e-05,1.04373698234558e-08,0.595962166786193,-1.00393533706665,1.59989750385284
516002.593876579,0.026599976990837604,1.07609883083237e-05,1.0760988308323701e-08,0.594835638999939,-1.00401163101196,1.5988472700119
516002.594676579,0.027399976970627904,1.10846138530307e-05,1.10846138530307e-08,0.593823611736297,-1.00383985042572,1.59766346216201
516002.595476579,0.028199976950418204,1.1408317108949e-05,1.1408317108949e-08,0.592792570590972,-1.00389719009399,1.59668976068496
516002.596276579,0.028999976988416165,1.17319144076771e-05,1.17319144076771e-08,0.591742396354675,-1.00395441055297,1.59569680690765
516002.597076579,0.029799976968206465,1.20556211802694e-05,1.20556211802694e-08,0.590577661991119,-1.00399255752563,1.59457021951675
516002.597876579,0.030599976947996765,1.2379331489404e-05,1.2379331489404001e-08,0.589565694332122,-1.00391626358032,1.59348195791244
516002.598876579,0.03159997699549422,1.27838961018456e-05,1.2783896101845601e-08,0.588343679904937,-1.00383985042572,1.59218353033065
516002.59987658,0.03259997797431424,1.31884289185206e-05,1.31884289185206e-08,0.587236225605011,-1.00380170345306,1.59103792905807
516002.60067658,0.03339997795410454,1.3512107445134e-05,1.3512107445134e-08,0.586186051368713,-1.00387799739837,1.59006404876709
516002.601676581,0.03439997899113223,1.39167215029398e-05,1.39167215029398e-08,0.585116803646087,-1.00385892391204,1.58897572755813
516002.602676579,0.03539997694315389,1.43212578495343e-05,1.43212578495343e-08,0.583971142768859,-1.00376343727111,1.58773458003997
516002.603676578,0.03639997594291344,1.472589309348e-05,1.472589309348e-08,0.582921028137207,-1.00383985042572,1.58676087856292
516002.604676576,0.03739997395314276,1.51304647591378e-05,1.51304647591378e-08,0.581832647323608,-1.00362980365753,1.58546245098114
516002.605876574,0.03859997197287157,1.5615943690141e-05,1.5615943690141e-08,0.580725193023681,-1.00376343727111,1.5844886302948
516002.606876572,0.03959996998310089,1.60205612712436e-05,1.6020561271243598e-08,0.579675018787384,-1.00364899635314,1.58332401514053
516002.60827657,0.04099996795412153,1.65869121617741e-05,1.6586912161774098e-08,0.57843393087387,-1.00366806983947,1.58210200071334
516002.609476568,0.04219996597385034,1.70724299483829e-05,1.70724299483829e-08,0.577402830123901,-1.00359165668487,1.58099448680877
516002.610676566,0.04339996399357915,1.75578417844242e-05,1.7557841784424202e-08,0.576295435428619,-1.00351524353027,1.57981067895889
516002.611876564,0.0445999619551003,1.80433101256688e-05,1.80433101256688e-08,0.575226128101348,-1.00343894958496,1.57866507768631
516002.613276561,0.04599995899479836,1.86097775697708e-05,1.8609777569770798e-08,0.574118673801422,-1.00330531597137,1.57742398977279
516002.614676559,0.047399956965819,1.91762414839532e-05,1.91762414839532e-08,0.572934865951538,-1.0033243894577,1.57625925540924
516002.616276556,0.048999953956808895,1.98235455618964e-05,1.9823545561896398e-08,0.571617424488067,-1.00334346294403,1.57496088743209
516002.617876555,0.05059995298506692,2.04709273378054e-05,2.04709273378054e-08,0.570548117160797,-1.00330531597137,1.57385343313217
516002.619276556,0.05199995398288593,2.10373806556065e-05,2.1037380655606503e-08,0.569459795951843,-1.00336253643035,1.5728223323822
516002.620876557,0.053599954990204424,2.16847059130668e-05,2.16847059130668e-08,0.568142294883728,-1.00336253643035,1.57150483131408
516002.622676556,0.05539995396975428,2.24129243161943e-05,2.24129243161943e-08,0.567130327224731,-1.00330531597137,1.5704356431961
516002.624276556,0.05699995398754254,2.30602566467391e-05,2.30602566467391e-08,0.566061079502105,-1.00343894958496,1.56950002908706
516002.626076556,0.05879995395662263,2.37885704239209e-05,2.37885704239209e-08,0.565029978752136,-1.00330531597137,1.56833529472351
516002.628076556,0.06079995399340987,2.45978515081935e-05,2.45978515081935e-08,0.563903450965881,-1.00330531597137,1.56720876693725
516002.630076556,0.06279995397198945,2.54070654908816e-05,2.54070654908816e-08,0.562872350215911,-1.00299978256225,1.56587213277816
516002.632076557,0.06479995499830693,2.62162370814217e-05,2.6216237081421698e-08,0.561726748943328,-1.00311434268951,1.56484109163284
516002.634276555,0.06699995294911787,2.71064854794078e-05,2.71064854794078e-08,0.560600221157074,-1.0029616355896,1.56356185674667
516002.636276552,0.06899994995910674,2.79156535466512e-05,2.79156535466512e-08,0.559550046920776,-1.00311434268951,1.56266438961029
516002.638476548,0.07119994598906487,2.88058630824089e-05,2.88058630824089e-08,0.558518946170806,-1.00301897525787,1.56153792142868
516002.640876544,0.07359994197031483,2.97770328786638e-05,2.97770328786638e-08,0.557468771934509,-1.00311434268951,1.56058311462402
516002.64327654,0.07599993795156479,3.0747990767161e-05,3.0747990767161e-08,0.556399524211883,-1.00305712223053,1.55945664644241
516002.646076535,0.07879993296228349,3.18807914389504e-05,3.18807914389504e-08,0.555311203002929,-1.00298070907592,1.55829191207885
516002.648676532,0.08139992994256318,3.29327660666571e-05,3.29327660666571e-08,0.554299175739288,-1.00286614894866,1.55716532468795
516002.652076534,0.08479993196669966,3.43083874252107e-05,3.43083874252107e-08,0.553287208080291,-1.00278985500335,1.55607706308364
516002.654876533,0.08759993099374697,3.54413258367114e-05,3.54413258367114e-08,0.552275240421295,-1.00275158882141,1.5550268292427
516002.657676533,0.09039993095211685,3.6574119442039e-05,3.6574119442039e-08,0.55124419927597,-1.00267529487609,1.55391949415206
516002.660876533,0.09359993098769337,3.78687840965059e-05,3.78687840965059e-08,0.550155818462371,-1.00275158882141,1.55290740728378
516002.664276534,0.09699993196409196,3.92445255385504e-05,3.92445255385504e-08,0.549105644226074,-1.00271344184875,1.55181908607482
516002.668276527,0.10099992499453947,4.08628687328762e-05,4.08628687328762e-08,0.54801732301712,-1.00259888172149,1.55061620473861
516002.67267652,0.1053999179857783,4.26429310970836e-05,4.2642931097083596e-08,0.547005295753479,-1.00248432159423,1.54948961734771
516002.676676513,0.10939991095801815,4.42613449229134e-05,4.42613449229134e-08,0.545993328094482,-1.00254166126251,1.54853498935699
516002.681076509,0.11379990697605535,4.60416121350394e-05,4.6041612135039404e-08,0.544924080371856,-1.00257980823516,1.54750388860702
516002.685676509,0.11839990696171299,4.79027407036887e-05,4.79027407036887e-08,0.543854832649231,-1.00246524810791,1.54632008075714
516002.691076509,0.12379990698536858,5.00877173410521e-05,5.00877173410521e-08,0.542842864990234,-1.00227439403533,1.54511725902557
516002.695676511,0.12839990895008668,5.19487788014941e-05,5.19487788014941e-08,0.541830897331237,-1.00227439403533,1.54410529136657
516002.700676502,0.13339989999076352,5.3971555908521e-05,5.3971555908521003e-08,0.540818870067596,-1.00231254100799,1.54313141107559
516002.706876492,0.13959988998249173,5.64800909757614e-05,5.64800909757614e-08,0.539806902408599,-1.00231254100799,1.54211944341659
516002.713476487,0.14619988499907777,5.91504300038019e-05,5.91504300038019e-08,0.538794934749603,-1.00204527378082,1.54084020853042
516002.719476486,0.15219988394528627,6.15781213508711e-05,6.15781213508711e-08,0.537782967090606,-1.00219798088073,1.53998094797134
516002.725676487,0.15839988499647006,6.40866670144928e-05,6.40866670144928e-08,0.536713719367981,-1.0021789073944,1.53889262676239
516002.734476475,0.1671998729580082,6.76473462449179e-05,6.764734624491789e-08,0.535663545131683,-1.00191164016723,1.53757518529892
516002.740876464,0.17359986196970567,7.023671441608e-05,7.023671441608e-08,0.534594297409057,-1.00194978713989,1.53654408454895
516002.749676463,0.18239986099069938,7.37972841527726e-05,7.37972841527726e-08,0.533563196659088,-1.00179708003997,1.53536027669906
516002.758276464,0.19099986198125407,7.72769113050566e-05,7.72769113050566e-08,0.53251302242279,-1.00185430049896,1.53436732292175
516002.767276449,0.199999846983701,8.091839540667e-05,8.091839540667e-08,0.531501054763793,-1.00179708003997,1.53329813480377
516002.777676441,0.210399838979356,8.51262515915764e-05,8.51262515915764e-08,0.530412673950195,-1.00166344642639,1.53207612037658
516002.787876441,0.2205998389981687,8.92532463868459e-05,8.92532463868459e-08,0.529400706291198,-1.00166344642639,1.53106415271759
516002.798876425,0.23159982298966497,9.37040044864018e-05,9.37040044864018e-08,0.528331458568573,-1.00154888629913,1.5298803448677
516002.811676416,0.2443998139933683,9.88830516338348e-05,9.88830516338348e-08,0.527300417423248,-1.0013769865036,1.52867740392684
516002.822276415,0.2549998129834421,0.000103171560777558,1.0317156077755799e-07,0.526269316673278,-1.00151062011718,1.52777993679046
516002.836276392,0.2689997899578884,0.000108835995031727,1.08835995031727e-07,0.525238215923309,-1.00131976604461,1.52655798196792
516002.850276394,0.28299979196162894,0.000114500538766384,1.14500538766384e-07,0.524168968200683,-1.00139617919921,1.5255651473999
516002.863676374,0.29639977199258283,0.000119922244138187,1.1992224413818699e-07,0.523137927055358,-1.00133883953094,1.5244767665863
516002.879276369,0.31199976697098464,0.000126234448677963,1.26234448677963e-07,0.522068679332733,-1.0010906457901,1.52315932512283
516002.897476347,0.3301997449598275,0.000133598161637783,1.3359816163778302e-07,0.521018505096435,-1.00107157230377,1.5220900774002
516002.916076345,0.3487997429911047,0.000141123968144257,1.4112396814425702e-07,0.520006537437439,-1.00084245204925,1.52084898948669
516002.934076324,0.36679972195997834,0.000148407232960065,1.48407232960065e-07,0.518937230110168,-1.00084245204925,1.51977968215942
516002.951276315,0.38399971299804747,0.000155366575545734,1.55366575545734e-07,0.517906188964843,-1.00065159797668,1.51855778694152
516002.9742763,0.4069996979669668,0.000164672398527463,1.64672398527463e-07,0.516894221305847,-1.00063240528106,1.51752662658691
516002.995076277,0.42779967497335747,0.000173088142633438,1.73088142633438e-07,0.515882194042205,-1.00057518482208,1.51645737886428
516003.016876263,0.4495996609912254,0.000181908832768599,1.81908832768599e-07,0.514870226383209,-1.0005178451538,1.51538807153701
516003.038476255,0.4711996529949829,0.000190648184769683,1.90648184769683e-07,0.513839185237884,-1.0005178451538,1.51435703039169
516003.06187623,0.4945996279711835,0.000200115716291798,2.00115716291798e-07,0.512808084487915,-1.00047969818115,1.51328778266906
516003.091876207,0.5245996049488895,0.000212254014200634,2.12254014200634e-07,0.511757910251617,-1.00034606456756,1.51210397481918
516003.119076184,0.5517995819682255,0.000223259762227535,2.23259762227535e-07,0.510726869106292,-1.00025057792663,1.51097744703292
516003.14987616,0.5825995579943992,0.000235721901165114,2.3572190116511402e-07,0.509676694869995,-1.00009787082672,1.50977456569671
516003.178276138,0.6109995359438471,0.000247212630119588,2.47212630119588e-07,0.508664727210998,-0.999887824058532,1.50855255126953
516003.215876114,0.6485995119437575,0.000262426297889815,2.62426297889815e-07,0.507557272911071,-0.999811470508575,1.50736874341964
516003.251076091,0.6837994889938273,0.000276668153040938,2.76668153040938e-07,0.506545305252075,-0.99971604347229,1.50626134872436
516003.284076067,0.7167994649498723,0.00029001960088147,2.9001960088147e-07,0.505456924438476,-0.999830543994903,1.50528746843338
516003.325676037,0.7583994349697605,0.000306850891318586,3.06850891318586e-07,0.504425883293151,-0.999677836894989,1.50410372018814
516003.373475998,0.8061993959709071,0.000326190851006243,3.26190851006243e-07,0.503394782543182,-0.999334216117858,1.50272899866104
516003.415875973,0.8485993709764443,0.000343346074283123,3.43346074283123e-07,0.502363741397857,-0.999391436576843,1.5017551779747
516003.458875929,0.891599326976575,0.00036074356014861,3.6074356014861e-07,0.501332640647888,-0.999315083026886,1.50064772367477
516003.504275904,0.9369993019499816,0.000379112053341335,3.79112053341335e-07,0.500263392925262,-0.999257802963256,1.49952119588851
516003.560475857,0.9931992549682036,0.000401850637535254,4.01850637535254e-07,0.499232292175293,-0.999162375926971,1.49839466810226
516003.619675811,1.0523992089438252,0.000425802707182036,4.25802707182036e-07,0.498220324516296,-0.999009609222412,1.4972299337387
516003.678075766,1.1107991639873944,0.000449431723475456,4.4943172347545603e-07,0.497189253568649,-0.998818695545196,1.49600794911384
516003.738875722,1.1715991199598648,0.000474031453907489,4.7403145390748896e-07,0.496081799268722,-0.99868506193161,1.49476686120033
516003.802075674,1.2347990719717927,0.000499602968653043,4.99602968653043e-07,0.495050728321075,-0.998665988445282,1.49371671676635
516003.876075625,1.308799022983294,0.000529545037110646,5.29545037110646e-07,0.494038760662078,-0.998398721218109,1.49243748188018
516003.940875577,1.3735989749548025,0.000555764046642515,5.55764046642515e-07,0.492950409650802,-0.998379588127136,1.49132999777793
516004.02167551,1.4543989079538733,0.000588456948141257,5.88456948141257e-07,0.491938412189483,-0.998245954513549,1.49018436670303
516004.100675463,1.5333988609490916,0.000620421571115652,6.20421571115652e-07,0.490926444530487,-0.998169600963592,1.48909604549408
516004.184075393,1.6167987909866497,0.000654166277693377,6.54166277693377e-07,0.48991447687149,-0.997997760772705,1.48791223764419
516004.279675322,1.7123987199738622,0.000692847775869899,6.928477758698991e-07,0.488902479410171,-0.998016834259033,1.4869193136692
516004.378475252,1.8111986499861814,0.000732824122276571,7.32824122276571e-07,0.487890511751174,-0.997654139995575,1.48554465174675
516004.477075183,1.9097985809785314,0.00077271850546201,7.727185054620099e-07,0.486878514289856,-0.997444093227386,1.48432260751724
516004.5786751,2.011398497968912,0.0008138272958729,8.138272958729e-07,0.485866546630859,-0.997348666191101,1.48321521282196
516004.68487502,2.117598417971749,0.000856797317226727,8.56797317226727e-07,0.484835475683212,-0.997215032577514,1.48205050826072
516004.800674932,2.2333983299904503,0.000903651537504461,9.036515375044609e-07,0.483804404735565,-0.997119545936584,1.48092395067215
516004.937074833,2.369798230996821,0.000958840961873531,9.58840961873531e-07,0.482773333787918,-0.996890425682067,1.47966375946998
516005.06467474,2.497398137988057,0.00101046986236837,1.01046986236837e-06,0.481761366128921,-0.996833145618438,1.47859451174736
516005.204074634,2.636798031977378,0.00106687269793616,1.06687269793616e-06,0.480749368667602,-0.996737718582153,1.47748708724975
516005.344674531,2.7773979289922863,0.00112376109016603,1.1237610901660301e-06,0.479737401008606,-0.996585011482238,1.47632241249084
516005.502074414,2.9347978119621985,0.00118744806294308,1.18744806294308e-06,0.478649049997329,-0.996489524841308,1.47513857483863
516005.680274273,3.112997670948971,0.00125954913755257,1.25954913755257e-06,0.477598875761032,-0.99603134393692,1.47363021969795
516005.860474145,3.2931975429528393,0.0013324598746962,1.3324598746962e-06,0.476586908102035,-0.99603134393692,1.47261825203895
516006.043274013,3.475997410947457,0.00140642354360553,1.4064235436055298e-06,0.475574910640716,-0.995954930782318,1.47152984142303
516006.245473856,3.678197253961116,0.00148823789838949,1.4882378983894901e-06,0.47456294298172,-0.995630383491516,1.47019332647323
516006.462073692,3.8947970899753273,0.00157587880222664,1.57587880222664e-06,0.473531872034072,-0.9954394698143,1.46897134184837
516006.681273529,4.113996926986147,0.0016645694803463,1.6645694803462998e-06,0.472500801086425,-0.995344042778015,1.46784484386444
516006.923673352,4.356396749964915,0.00176264927617046,1.76264927617046e-06,0.471488833427429,-0.995019435882568,1.46650826930999
516007.16147318,4.594196577963885,0.00185886475059058,1.8588647505905799e-06,0.470457762479782,-0.994924008846283,1.46538177132606
516007.423672979,4.856396376970224,0.0019649537657433,1.9649537657433e-06,0.469426691532135,-0.994714021682739,1.46414071321487
516007.700272778,5.132996175962035,0.00207686811857753,2.07686811857753e-06,0.468414694070816,-0.994675815105438,1.46309050917625
516008.001672552,5.434395949996542,0.00219881738161378,2.1988173816137803e-06,0.467383623123168,-0.994351267814636,1.4617348909378
516008.323072316,5.755795713979751,0.00232885807802942,2.3288580780294196e-06,0.466352552175521,-0.994217634201049,1.46057018637657
516008.659072062,6.091795459971763,0.0024648061529133,2.4648061529133e-06,0.465283304452896,-0.994045794010162,1.45932909846305
516009.039071785,6.4717951829661615,0.0026185564761228,2.6185564761227998e-06,0.464271306991577,-0.993759393692016,1.45803070068359
516009.417671499,6.850394896988291,0.00277173952648374,2.7717395264837398e-06,0.4631829559803,-0.993683040142059,1.45686599612236
516009.8218712,7.254594597965479,0.00293528280799256,2.93528280799256e-06,0.462151885032653,-0.993473052978515,1.45562493801116
516010.26207087,7.694794267998077,0.00311339238247606,3.11339238247606e-06,0.461139917373657,-0.993205726146698,1.45434564352035
516010.721670525,8.154393922945019,0.00329935025512509,3.29935025512509e-06,0.460127919912338,-0.993091225624084,1.45321914553642
516011.181270176,8.613993573992047,0.00348530989048878,3.4853098904887804e-06,0.459115952253341,-0.992804825305938,1.45192077755928
516011.659469827,9.092193224991206,0.00367879696738057,3.67879696738057e-06,0.458084881305694,-0.992613911628723,1.45069879293441
516012.200669424,9.633392821997404,0.00389777184069818,3.89777184069818e-06,0.457072913646698,-0.992461144924163,1.44953405857086
516012.756269013,10.188992410956416,0.00412257351032892,4.12257351032892e-06,0.456060916185379,-0.992041170597076,1.44810208678245
516013.33766857,10.770391967962496,0.00435781351734532,4.35781351734532e-06,0.455048948526382,-0.991926610469818,1.4469755589962
516013.917868146,11.350591543945484,0.00459256779460112,4.5925677946011195e-06,0.453979700803756,-0.991697490215301,1.44567719101905
516014.637667609,12.070391006942373,0.0048838037872778,4.8838037872778006e-06,0.452929526567459,-0.991582930088043,1.4445124566555
516015.297867113,12.73059051099699,0.00515092649992306,5.15092649992306e-06,0.451879352331161,-0.99131566286087,1.44319501519203
516016.072666542,13.50538993999362,0.00546441440788242,5.4644144078824194e-06,0.450848281383514,-0.990857481956481,1.44170576333999
516016.817665985,14.250389382999856,0.00576584801889128,5.76584801889128e-06,0.449836313724517,-0.990914762020111,1.44075107574462
516017.555465426,14.988188823976088,0.00606436531643072,6.0643653164307195e-06,0.448824316263198,-0.990704715251922,1.43952903151512
516018.394064804,15.826788201986346,0.00640366711132393,6.40366711132393e-06,0.447812348604202,-0.99047565460205,1.43828800320625
516019.235864179,16.668587576947175,0.00674426405811309,6.74426405811309e-06,0.446800380945205,-0.990208327770233,1.43700870871543
516020.119063518,17.55178691598121,0.00710161385005712,7.10161385005712e-06,0.445788383483886,-0.98994106054306,1.43572944402694
516021.056262819,18.48898621695116,0.00748081168807215,7.48081168807215e-06,0.444757312536239,-0.989769220352172,1.43452653288841
516022.072862071,19.50558546895627,0.00789213758112324,7.89213758112324e-06,0.443745344877243,-0.989540159702301,1.43328550457954
516023.034261352,20.466984749946278,0.00828112946172555,8.281129461725551e-06,0.442733377218246,-0.989215612411499,1.43194898962974
516024.095060561,21.527783958998043,0.0087103427524699,8.7103427524699e-06,0.441721379756927,-0.989062845706939,1.43078422546386
516025.254859699,22.68758309696568,0.0091796021326118,9.1796021326118e-06,0.44070941209793,-0.988871932029724,1.42958134412765
516026.313458907,23.74618230498163,0.00960792124719751,9.60792124719751e-06,0.439697444438934,-0.988681018352508,1.42837846279144
516027.473858046,24.906581443967298,0.0100774252881341,1.00774252881341e-05,0.438685446977615,-0.988490104675293,1.4271755516529
516028.653057162,26.085780559980776,0.0105545356186098,1.05545356186098e-05,0.437616199254989,-0.988184630870819,1.4258008301258
516029.874256254,27.306979651970323,0.0110486385035316,1.10486385035316e-05,0.436585128307342,-0.987974643707275,1.42455977201461
516031.194055276,28.62677867396269,0.0115826321265697,1.15826321265697e-05,0.435573130846023,-0.987802803516387,1.42337593436241
516032.453054333,29.8857777309604,0.0120920346895125,1.20920346895125e-05,0.434542059898376,-0.987516403198242,1.42205846309661
516033.792453339,31.225176736945286,0.0126339683645963,1.26339683645963e-05,0.433530092239379,-0.987401843070983,1.42093193531036
516035.055052387,32.48777578497538,0.0131448245145479,1.31448245145479e-05,0.432499021291732,-0.987230062484741,1.41972908377647
516036.488851321,33.921574718959164,0.0137249515633251,1.3724951563325098e-05,0.431448847055435,-0.987000942230224,1.41844978928566
516037.793050358,35.22577375598485,0.0142526397204531,1.4252639720453099e-05,0.430379599332809,-0.98684823513031,1.41722783446312
516039.313449222,36.746172619983554,0.0148678001224795,1.4867800122479499e-05,0.429310321807861,-0.986561834812164,1.41587215662002
516040.748248151,38.180971548950765,0.015448330591619,1.5448330591619e-05,0.428279250860214,-0.986447274684906,1.41472652554512
516042.110647136,39.54337053396739,0.0159995683093269,1.59995683093269e-05,0.427248179912567,-0.986199080944061,1.41344726085662
516043.469246125,40.90196952299448,0.0165492693081498,1.65492693081498e-05,0.42623621225357,-0.986103653907775,1.41233986616134
516044.909645054,42.342368451994844,0.0171320672857562,1.7132067285756202e-05,0.425186038017272,-0.985931813716888,1.41111785173416
516046.309644007,43.74236740497872,0.0176985188903676,1.76985188903676e-05,0.424174070358276,-0.985798180103302,1.40997225046157
516047.685842982,45.11856637999881,0.0182553429322838,1.82553429322838e-05,0.423162102699279,-0.985683619976043,1.40884572267532
516049.126841911,46.55956530896947,0.0188383883962167,1.88383883962167e-05,0.42215010523796,-0.985454499721527,1.40760460495948
516050.607640808,48.040364205953665,0.0194375323445929,1.94375323445929e-05,0.421119034290313,-0.985378146171569,1.40649718046188
516051.950039809,49.38276320695877,0.0199806769832968,1.9980676983296802e-05,0.420049786567688,-0.985282719135284,1.40533250570297
516053.40983872,50.8425621179631,0.0205713250394662,2.0571325039466198e-05,0.419037789106369,-0.985015392303466,1.40405318140983
516054.84923765,52.281961047963705,0.0211537172124981,2.11537172124981e-05,0.418006718158721,-0.985053598880767,1.40306031703949
516056.229236623,53.66196002095239,0.0217120726226634,2.1712072622663398e-05,0.416994750499725,-0.984843552112579,1.4018383026123
516057.60943559,55.04215898795519,0.0222705116846097,2.2270511684609697e-05,0.415982782840728,-0.984633564949035,1.40061634778976
516059.003434553,56.43615795095684,0.0228345454198916,2.28345454198916e-05,0.414970785379409,-0.98453813791275,1.39950892329216
516060.322633573,57.755356970999856,0.0233683083719346,2.33683083719346e-05,0.413958817720413,-0.984366297721862,1.39832511544227
516061.568232644,59.00095604197122,0.023872295424554,2.3872295424554002e-05,0.412946850061416,-0.984461724758148,1.39740857481956
516062.966031597,60.39875499496702,0.0244378546474046,2.44378546474046e-05,0.411934852600097,-0.984309017658233,1.39624387025833
516064.230030661,61.662754058954306,0.0249492787022458,2.4949278702245802e-05,0.410922884941101,-0.984137177467346,1.39506006240844
516065.528029688,62.960753085964825,0.0254744653034011,2.5474465303401102e-05,0.409910917282104,-0.984137177467346,1.39404809474945
516066.866828685,64.29955208295723,0.0260161532543765,2.6016153254376498e-05,0.408879816532135,-0.984060823917388,1.39294064044952
516068.144627736,65.57735113397939,0.0265331614400148,2.6533161440014797e-05,0.407848745584487,-0.983831703662872,1.39168044924736
516069.386426819,66.81915021699388,0.0270356008886827,2.70356008886827e-05,0.406798601150512,-0.983888983726501,1.39068758487701
516070.728625821,68.16134921897901,0.0275786680532031,2.7578668053203098e-05,0.405786603689193,-0.983659923076629,1.38944652676582
516071.904424937,69.33714833494741,0.0280544086397091,2.80544086397091e-05,0.404755532741546,-0.983640789985656,1.3883963227272
516073.145624009,70.57834740699036,0.0285566081144346,2.85566081144346e-05,0.40374356508255,-0.983602643013,1.38734620809555
516074.324623139,71.75734653696418,0.0290336380216015,2.90336380216015e-05,0.402712494134903,-0.983488082885742,1.38620057702064
516075.526222237,72.95894563494949,0.0295198143991629,2.95198143991629e-05,0.401662319898605,-0.983354449272155,1.38501676917076
516076.663221399,74.0959447969799,0.029979850615157,2.9979850615157e-05,0.400650352239608,-0.983297169208526,1.38394752144813
516077.842420514,75.27514391194563,0.0304569576892786,3.04569576892786e-05,0.399562001228332,-0.983220815658569,1.3827828168869
516078.984619664,76.41734306199942,0.030919101269861,3.0919101269861e-05,0.398511826992034,-0.983258962631225,1.38177078962326
516080.121618815,77.55434221297037,0.0313791407741705,3.13791407741705e-05,0.397499859333038,-0.98306804895401,1.38056790828704
516081.243017975,78.67574137297925,0.0318328702104753,3.18328702104753e-05,0.39644968509674,-0.983087122440338,1.37953680753707
516082.320817185,79.75354058295488,0.0322689608697493,3.2268960869749296e-05,0.395437717437744,-0.982877135276794,1.37831485271453
516083.322016438,80.75473983597476,0.0326740550980766,3.26740550980766e-05,0.394425719976425,-0.982838928699493,1.37726464867591
516084.345615671,81.7783390689874,0.0330882131023274,3.30882131023274e-05,0.393413752317428,-0.982762575149536,1.37617632746696
516085.300614954,82.73333835194353,0.0334746135770281,3.34746135770281e-05,0.392401784658432,-0.982705295085907,1.37510707974433
516086.260814247,83.69353764498373,0.0338631156521373,3.38631156521373e-05,0.391389787197113,-0.982819855213165,1.37420964241027
516087.262613499,84.69533689698437,0.034268449130747,3.4268449130747e-05,0.390320539474487,-0.982590734958648,1.37291127443313
516088.219612784,85.65233618195634,0.0346556583036449,3.46556583036449e-05,0.389308542013168,-0.982361674308776,1.37167021632194
516089.162412086,86.59513548394898,0.0350371216829617,3.50371216829617e-05,0.388277471065521,-0.982418954372406,1.37069642543792
516090.06101141,87.49373480799841,0.0354007034748064,3.54007034748064e-05,0.387265503406524,-0.982380747795105,1.36964625120163
516090.940210758,88.37293415598106,0.0357564329421718,3.57564329421718e-05,0.386253535747528,-0.982380747795105,1.36863428354263
516091.799010114,89.23173351195874,0.0361039117787083,3.6103911778708304e-05,0.38520336151123,-0.982323467731475,1.3675268292427
516092.659609477,90.09233287494862,0.0364521224890417,3.64521224890417e-05,0.384191393852233,-0.98222804069519,1.36641943454742
516093.520408829,90.95313222694676,0.0368004105430311,3.6800410543031096e-05,0.383179396390914,-0.982189834117889,1.3653692305088
516094.319008244,91.75173164199805,0.0371235337237583,3.7123533723758294e-05,0.382129251956939,-0.982151627540588,1.36428087949752
516095.157207615,92.58993101294618,0.0374626731317507,3.7462673131750705e-05,0.381059974431991,-0.98213255405426,1.36319252848625
516095.920207047,93.35293044499122,0.0377713868502842,3.77713868502842e-05,0.380048006772995,-0.981998920440673,1.36204692721366
516096.700806466,94.13352986396058,0.038087224519564,3.8087224519564e-05,0.379036009311676,-0.981998920440673,1.36103492975235
516097.473405892,94.90612928994233,0.0383998233623769,3.83998233623769e-05,0.378024041652679,-0.981808006763458,1.35983204841613
516098.133805403,95.56652880099136,0.0386670244218177,3.86670244218177e-05,0.376992970705032,-0.981808006763458,1.35880097746849
516098.876004844,96.30872824194375,0.0389673235971397,3.89673235971397e-05,0.375981003046035,-0.981808006763458,1.35778900980949
516099.537404356,96.97012775397161,0.0392349282568759,3.92349282568759e-05,0.374969005584716,-0.98178893327713,1.35675793886184
516100.216203843,97.64892724098172,0.0395095735514164,3.95095735514164e-05,0.373937934637069,-0.981655240058898,1.35559317469596
516100.916803328,98.34952672594227,0.0397930409841669,3.97930409841669e-05,0.372868686914444,-0.981712520122528,1.35458120703697
516101.514202879,98.94692627695622,0.0400347539329528,4.0034753932952794e-05,0.371856719255447,-0.981655240058898,1.35351195931434
516102.178002378,99.61072577594314,0.0403033303170204,4.03033303170204e-05,0.370844721794128,-0.98163616657257,1.35248088836669
516102.753601956,100.18632535397774,0.0405362245886325,4.05362245886325e-05,0.369832754135131,-0.981598019599914,1.35143077373504
516103.372401492,100.80512488994282,0.0407865980836153,4.07865980836153e-05,0.368820756673812,-0.981407046318054,1.35022780299186
516103.930601072,101.36332446994493,0.0410124538291891,4.10124538291891e-05,0.367808789014816,-0.981445252895355,1.34925404191017
516104.491200653,101.92392405099235,0.0412392830049196,4.12392830049196e-05,0.366796821355819,-0.981407046318054,1.34820386767387
516105.053600234,102.48632363195065,0.0414668389615681,4.1466838961568103e-05,0.3657848238945,-0.981349825859069,1.34713464975357
516105.553799862,102.98652325995499,0.0416692271875937,4.16692271875937e-05,0.364753752946853,-0.981521606445312,1.34627535939216
516106.109199455,103.54192285297904,0.041893946519302,4.1893946519301996e-05,0.363741785287857,-0.981254339218139,1.34499612450599
516106.631399071,104.06412246898981,0.0421052361835307,4.2105236183530704e-05,0.36272981762886,-0.981273412704467,1.34400323033332
516107.132198699,104.56492209696444,0.0423078704300324,4.23078704300324e-05,0.361679643392562,-0.981235265731811,1.34291490912437
516107.616598324,105.04932172194822,0.0425038660561574,4.25038660561574e-05,0.360667675733566,-0.981235265731811,1.34190294146537
516108.089997977,105.52272137498949,0.0426954082082245,4.2695408208224496e-05,0.359636604785919,-0.981177985668182,1.3408145904541
516108.591597603,106.02432100096485,0.0428983589599066,4.28983589599066e-05,0.358510047197341,-0.981330692768096,1.33984073996543
516109.068197254,106.50092065194622,0.0430911971684297,4.30911971684297e-05,0.357478976249694,-0.98119705915451,1.3386760354042
516109.51359692,106.94632031797664,0.0432714130091203,4.3271413009120305e-05,0.356467008590698,-0.98119705915451,1.3376640677452
516109.910996625,107.34372002299642,0.0434322070646352,4.34322070646352e-05,0.355455011129379,-0.981139779090881,1.33659479022026
516110.312596323,107.74531972099794,0.0435946997311512,4.3594699731151205e-05,0.354404866695404,-0.981044352054595,1.33544921875
516110.749795997,108.18251939496258,0.043771594446361,4.3771594446361e-05,0.353316485881805,-0.981101632118225,1.33441811800003
516111.151395694,108.58411909197457,0.0439340826523039,4.3934082652303895e-05,0.35226634144783,-0.981120705604553,1.33338704705238
516111.55499539,108.98771878797561,0.0440973808280295,4.40973808280295e-05,0.351254343986511,-0.981044352054595,1.3322986960411
516111.913995137,109.34671853494365,0.0442426369649834,4.4242636964983404e-05,0.350242376327514,-0.981006145477294,1.33124852180481
516112.288794857,109.7215182549553,0.0443942911443445,4.4394291144344495e-05,0.349192202091217,-0.981101632118225,1.33029383420944
516112.629194599,110.06191799696535,0.0445320249997046,4.45320249997046e-05,0.34818023443222,-0.981044352054595,1.32922458648681
516112.972394343,110.40511774097104,0.0446708902324305,4.46708902324305e-05,0.347168266773223,-0.981006145477294,1.32817441225051
516113.312994087,110.74571748496965,0.0448087012865675,4.4808701286567495e-05,0.346156269311904,-0.981120705604553,1.32727697491645
516113.629193854,111.0619172519655,0.0449366391671498,4.49366391671498e-05,0.345106124877929,-0.980948865413665,1.32605499029159
516113.931193621,111.36391701898538,0.0450588317487637,4.5058831748763696e-05,0.34409412741661,-0.980967938899993,1.3250620663166
516114.269593371,111.7023167689913,0.0451957553130785,4.51957553130785e-05,0.343063056468963,-0.981120705604553,1.32418376207351
516114.572393154,112.00511655199807,0.045318274038328,4.5318274038328e-05,0.342051088809967,-0.980872511863708,1.32292360067367
516114.872792924,112.30551632196875,0.0454398191358645,4.54398191358645e-05,0.341039091348648,-0.981006145477294,1.32204523682594
516115.151392714,112.58411611197516,0.0455525455951558,4.55525455951558e-05,0.340027123689651,-0.981063425540924,1.32109054923057
516115.423392513,112.85611591098132,0.0456626013904743,4.56626013904743e-05,0.339015156030654,-0.980872511863708,1.31988766789436
516115.687192318,113.11991571594262,0.0457693377910521,4.5769337791052096e-05,0.337984085083007,-0.980987071990966,1.31897115707397
516115.949992125,113.38271552295191,0.0458756724064416,4.58756724064416e-05,0.336972087621688,-0.981044352054595,1.31801643967628
516116.208391925,113.64111532300012,0.045980225077033,4.5980225077033e-05,0.335921943187713,-0.980967938899993,1.3168898820877
516116.467991736,113.90071513399016,0.0460852635268105,4.60852635268105e-05,0.334890872240066,-0.980929791927337,1.3158206641674
516116.707791553,114.14051495096646,0.0461822905002898,4.61822905002898e-05,0.333878874778747,-0.980929791927337,1.31480866670608
516116.928591387,114.36131478496827,0.046271629298177,4.6271629298176995e-05,0.332866907119751,-0.980967938899993,1.31383484601974
516117.150391223,114.58311462099664,0.0463613723922835,4.63613723922835e-05,0.331778556108474,-0.981025218963623,1.31280377507209
516117.389391051,114.8221144489944,0.0464580746771892,4.6458074677189205e-05,0.330747485160827,-0.981025218963623,1.31177270412445
516117.61299088,115.04571427794872,0.0465485467313925,4.65485467313925e-05,0.329678207635879,-0.980929791927337,1.31060799956321
516117.829590721,115.26231411896879,0.0466361873702605,4.66361873702605e-05,0.328628063201904,-0.980929791927337,1.30955785512924
516118.045790562,115.47851395996986,0.0467236667455832,4.67236667455832e-05,0.327596992254257,-0.980834305286407,1.30843129754066
516118.225590433,115.6583138309652,0.0467964164062738,4.67964164062738e-05,0.326527714729309,-0.980967938899993,1.3074956536293
516118.429790268,115.86251366598299,0.0468790392084784,4.68790392084784e-05,0.325496643781662,-0.981025218963623,1.30652186274528
516118.629590129,116.06231352698524,0.0469598807122243,4.69598807122243e-05,0.324465572834014,-0.980987071990966,1.30545264482498
516118.822389988,116.25511338596698,0.0470378903837866,4.70378903837866e-05,0.323453605175018,-0.980910718441009,1.30436432361602
516118.987989855,116.42071325297002,0.0471048922624588,4.71048922624588e-05,0.32240343093872,-0.981006145477294,1.30340957641601
516119.167989729,116.60071312694345,0.047177722413712,4.7177722413712e-05,0.321391463279724,-0.980987071990966,1.30237853527069
516119.328989604,116.76171300199348,0.0472428646648989,4.7242864664898905e-05,0.320360392332077,-0.981101632118225,1.3014620244503
516119.506189478,116.93891287595034,0.0473145613974134,4.73145613974134e-05,0.319310218095779,-0.981063425540924,1.3003736436367
516119.664589362,117.09731275995728,0.0473786511900822,4.73786511900822e-05,0.318279147148132,-0.980987071990966,1.29926621913909
516119.807589245,117.24031264299992,0.0474365094877812,4.74365094877812e-05,0.317267149686813,-0.981139779090881,1.29840692877769
516119.965789129,117.39851252699737,0.0475005192243655,4.7500519224365505e-05,0.316255182027816,-0.981063425540924,1.29731860756874
516120.11138902,117.54411241796333,0.0475594304925931,4.75594304925931e-05,0.315224111080169,-0.981044352054595,1.29626846313476
516120.250788919,117.68351231695851,0.0476158338685565,4.76158338685565e-05,0.314212143421173,-0.981006145477294,1.29521828889846
516120.388988817,117.82171221496537,0.0476717508967717,4.7671750896771694e-05,0.313181072473526,-0.981082499027252,1.29426357150077
516120.528788709,117.96151210699463,0.0477283154445754,4.7728315444575396e-05,0.312169075012207,-0.981006145477294,1.2931752204895
516120.663988617,118.09671201498713,0.0477830190156168,4.7783019015616806e-05,0.31115710735321,-0.981101632118225,1.29225873947143
516120.787188523,118.21991192095447,0.0478328665751814,4.78328665751814e-05,0.310145139694213,-0.981120705604553,1.29126584529876
516120.923188416,118.3559118139674,0.0478878928746581,4.78878928746581e-05,0.309094965457916,-0.981006145477294,1.29010111093521
516121.045388327,118.4781117249513,0.0479373361769716,4.79373361769716e-05,0.308063894510269,-0.981158852577209,1.28922274708747
516121.164588244,118.59731164196273,0.0479855661104454,4.79855661104454e-05,0.306994616985321,-0.981120705604553,1.28811532258987
516121.28318815,118.71591154794442,0.048033553145349,4.8033553145349e-05,0.305982649326324,-0.981044352054595,1.28702700138092
516121.403188057,118.83591145498212,0.0480821056059863,4.80821056059863e-05,0.304970681667327,-0.981044352054595,1.28601503372192
516121.501587988,118.93431138596497,0.0481219188699457,4.81219188699457e-05,0.30393961071968,-0.981025218963623,1.2849648296833
516121.610187904,119.04291130194906,0.0481658595348994,4.81658595348994e-05,0.302927613258361,-0.981139779090881,1.28406739234924
516121.721587824,119.15431122196605,0.0482109333254231,4.8210933325423106e-05,0.301896542310714,-0.981139779090881,1.28303632140159
516121.82378775,119.25651114794891,0.0482522853991256,4.82522853991256e-05,0.300846397876739,-0.981254339218139,1.28210073709487
516121.924987668,119.35771106596803,0.0482932323114011,4.82932323114011e-05,0.299815326929092,-0.981139779090881,1.28095510601997
516122.007987616,119.44071101397276,0.0483268149244255,4.83268149244255e-05,0.298784255981445,-0.981311619281768,1.28009587526321
516122.107987536,119.54071093397215,0.0483672760469383,4.83672760469383e-05,0.297772258520126,-0.981139779090881,1.278912037611
516122.203587463,119.6363108609803,0.0484059564501709,4.84059564501709e-05,0.296760290861129,-0.98119705915451,1.27795735001564
516122.289187407,119.72191080497578,0.0484405912815332,4.84405912815332e-05,0.29574829339981,-0.981254339218139,1.27700263261795
516122.383587336,119.8163107339642,0.0484787869052092,4.8478786905209205e-05,0.294698148965835,-0.98119705915451,1.27589520812034
516122.464387266,119.89711066399468,0.0485114789625869,4.85114789625869e-05,0.293647974729538,-0.981349825859069,1.2749978005886
516122.561187196,119.99391059397021,0.0485506457701325,4.8550645770132505e-05,0.292578727006912,-0.981216132640838,1.27379485964775
516122.641387136,120.07411053398391,0.0485830960839722,4.8583096083972205e-05,0.291490375995636,-0.98119705915451,1.27268743515014
516122.723987079,120.15671047696378,0.0486165168047746,4.86165168047746e-05,0.290421098470687,-0.98129254579544,1.27171364426612
516122.802187012,120.23491040995577,0.0486481576998432,4.86481576998432e-05,0.289409130811691,-0.981120705604553,1.27052983641624
516122.880186962,120.31291035999311,0.0486797177336017,4.86797177336017e-05,0.288378059864044,-0.98129254579544,1.26967060565948
516122.944986918,120.37771031598095,0.0487059364641441,4.8705936464144107e-05,0.287366062402725,-0.981349825859069,1.26871588826179
516123.021986847,120.45471024495782,0.0487370917743047,4.87370917743047e-05,0.28631591796875,-0.981368899345397,1.26768481731414
516123.0887868,120.52151019795565,0.0487641196763979,4.87641196763979e-05,0.285284847021102,-0.981426179409027,1.26671102643013
516123.161586753,120.59431015094742,0.0487935750015444,4.8793575001544403e-05,0.284272849559783,-0.981177985668182,1.26545083522796
516123.226986708,120.65971010597423,0.0488200377112627,4.88200377112627e-05,0.283241778612136,-0.981464326381683,1.26470610499382
516123.297186648,120.72991004597861,0.0488484418988029,4.88484418988029e-05,0.28222981095314,-0.981216132640838,1.26344594359397
516123.360186601,120.79290999897057,0.0488739324250552,4.88739324250552e-05,0.281217813491821,-0.98129254579544,1.26251035928726
516123.422386555,120.85510995297227,0.0488990992197924,4.88990992197924e-05,0.280186742544174,-0.981407046318054,1.26159378886222
516123.482786512,120.91550990997348,0.0489235384000937,4.89235384000937e-05,0.279155671596527,-0.981464326381683,1.26061999797821
516123.544186467,120.97690986498492,0.0489483815092113,4.89483815092113e-05,0.278010040521621,-0.981483459472656,1.25949349999427
516123.605386422,121.03810981998686,0.0489731438595189,4.8973143859518895e-05,0.276998072862625,-0.981464326381683,1.2584623992443
516123.664186382,121.09690977999708,0.0489969347327351,4.89969347327351e-05,0.275986105203628,-0.981445252895355,1.25743135809898
516123.722786333,121.15550973097561,0.0490206451013485,4.90206451013485e-05,0.27493593096733,-0.981464326381683,1.25640025734901
516123.779586287,121.21230968495365,0.0490436270960503,4.90436270960503e-05,0.273923933506012,-0.981464326381683,1.25538825988769
516123.829386251,121.26210964896018,0.0490637770997285,4.90637770997285e-05,0.272816509008407,-0.981598019599914,1.25441452860832
516123.884786216,121.31750961398939,0.049086192552891,4.9086192552890994e-05,0.271804511547088,-0.98163616657257,1.25344067811965
516123.940986171,121.37370956898667,0.0491089326099157,4.9108932609915704e-05,0.270792543888092,-0.981502532958984,1.25229507684707
516123.985986134,121.4187095319503,0.0491271393592225,4.91271393592225e-05,0.269761472940444,-0.981712520122528,1.25147399306297
516124.040386101,121.47310949896928,0.0491491505727304,4.91491505727304e-05,0.268749505281448,-0.981617093086242,1.25036659836769
516124.082586059,121.51530945696868,0.0491662254396743,4.91662254396743e-05,0.267718434333801,-0.981674373149871,1.24939280748367
516124.139186022,121.57190941995941,0.0491891267637875,4.9189126763787495e-05,0.266706436872482,-0.9816934466362,1.24839988350868
516124.179385984,121.61210938199656,0.0492053919434746,4.92053919434746e-05,0.265675365924835,-0.981617093086242,1.24729245901107
516124.225585963,121.65830936096609,0.0492240852277941,4.9224085227794096e-05,0.264606118202209,-0.9816934466362,1.2462995648384
516124.266785925,121.69950932299253,0.0492407559504442,4.92407559504442e-05,0.263536840677261,-0.981712520122528,1.24524936079978
516124.320985892,121.7537092899438,0.0492626859705381,4.92626859705381e-05,0.262524873018264,-0.981598019599914,1.24412289261817
516124.36338585,121.7961092479527,0.0492798413527144,4.92798413527144e-05,0.261436522006988,-0.98163616657257,1.24307268857955
516124.406985822,121.83970921998844,0.049297482725958,4.9297482725958e-05,0.26036724448204,-0.98178893327713,1.24215617775917
516124.449185794,121.88190919195767,0.0493145578542285,4.9314557854228505e-05,0.259221613407135,-0.98163616657257,1.2408577799797
516124.499385752,121.93210914998781,0.0493348696124288,4.93348696124288e-05,0.258171468973159,-0.981559813022613,1.23973128199577
516124.540185729,121.97290912695462,0.0493513780825535,4.93513780825535e-05,0.257140398025512,-0.981808006763458,1.23894840478897
516124.581185689,122.0139090869925,0.0493679671844575,4.93679671844575e-05,0.256032943725585,-0.981750726699829,1.23778367042541
516124.622385659,122.05510905699339,0.049384637084186,4.9384637084186e-05,0.255001872777938,-0.981903433799743,1.23690530657768
516124.660185635,122.09290903294459,0.0493999320264657,4.9399932026465696e-05,0.253989875316619,-0.981617093086242,1.23560696840286
516124.696785612,122.12950900994474,0.0494147414474818,4.94147414474818e-05,0.252958804368972,-0.981712520122528,1.2346713244915
516124.728585587,122.16130898497067,0.0494276087937951,4.94276087937951e-05,0.251927733421325,-0.981827080249786,1.23375481367111
516124.766585553,122.19930895097787,0.049442983580331,4.9442983580331004e-05,0.25087758898735,-0.981846153736114,1.23272374272346
516124.804185519,122.23690891696606,0.0494581970149344,4.94581970149344e-05,0.249865591526031,-0.981750726699829,1.23161631822586
516124.841385496,122.27410889399471,0.0494732485538323,4.94732485538323e-05,0.248853608965873,-0.981827080249786,1.23068068921566
516124.875985472,122.30870886996854,0.0494872482770217,4.94872482770217e-05,0.247841641306877,-0.981750726699829,1.2295923680067
516124.904385449,122.33710884698667,0.0494987395711011,4.9498739571101097e-05,0.246810555458068,-0.981865286827087,1.22867584228515
516124.941985426,122.3747088239761,0.0495139529139465,4.95139529139465e-05,0.245779484510421,-0.981750726699829,1.22753021121025
516124.975585404,122.40830880199792,0.0495275474367737,4.9527547436773696e-05,0.244767516851425,-0.981769800186157,1.22653731703758
516125.004385379,122.43710877699777,0.0495392004182272,4.95392004182272e-05,0.243736445903778,-0.981922566890716,1.22565901279449
516125.039985356,122.47270875395043,0.0495536047306921,4.95536047306921e-05,0.24272446334362,-0.981846153736114,1.22457061707973
516125.067385333,122.50010873097926,0.0495646912835439,4.95646912835439e-05,0.241693392395973,-0.981998920440673,1.22369231283664
516125.100585311,122.53330870898208,0.0495781242002182,4.95781242002182e-05,0.240662321448326,-0.981960713863372,1.22262303531169
516125.128785285,122.5615086829639,0.0495895342939032,4.95895342939032e-05,0.239650338888168,-0.982056200504303,1.22170653939247
516125.161185263,122.59390866098693,0.0496026435214413,4.9602643521441305e-05,0.238619267940521,-0.981941640377044,1.22056090831756
516125.18678524,122.61950863798847,0.0496130016474922,4.96130016474922e-05,0.237607285380363,-0.981979846954345,1.2195871323347
516125.220985217,122.65370861499105,0.0496268392876916,4.96268392876916e-05,0.236595302820205,-0.981903433799743,1.21849873661994
516125.246185194,122.6789085919736,0.0496370352884199,4.9637035288419904e-05,0.235583335161209,-0.981846153736114,1.21742948889732
516125.27858517,122.71130856795935,0.0496501446183986,4.9650144618398603e-05,0.234533160924911,-0.981922566890716,1.21645572781562
516125.303185148,122.73590854596114,0.0496600984341502,4.9660098434150203e-05,0.233502089977264,-0.981998920440673,1.21550101041793
516125.336185122,122.76890851999633,0.0496734511852661,4.96734511852661e-05,0.232471019029617,-0.981884360313415,1.21435537934303
516125.359785111,122.79250850895187,0.0496829998889631,4.96829998889631e-05,0.231459036469459,-0.981903433799743,1.2133624702692
516125.388185093,122.82090849097585,0.0496944910664293,4.96944910664293e-05,0.230389788746833,-0.982017993927002,1.21240778267383
516125.41898507,122.85170846799156,0.0497069529933797,4.9706952993379694e-05,0.229358717799186,-0.981960713863372,1.21131943166256
516125.442585053,122.8753084509517,0.0497165022056897,4.9716502205689696e-05,0.228346735239028,-0.981998920440673,1.2103456556797
516125.465385031,122.89810842898441,0.0497257273368371,4.9725727336837096e-05,0.227277472615242,-0.982189834117889,1.20946730673313
516125.496785007,122.92950840498088,0.0497384320421616,4.97384320421616e-05,0.226246401667594,-0.981884360313415,1.20813076198101
516125.520784987,122.95350838499144,0.0497481425745487,4.97481425745487e-05,0.225234419107437,-0.982056200504303,1.20729061961174
516125.543984977,122.97670837497571,0.0497575297145048,4.9757529714504795e-05,0.22420334815979,-0.981979846954345,1.20618319511413
516125.570384962,123.00310835998971,0.0497682115543749,4.97682115543749e-05,0.223191365599632,-0.981922566890716,1.20511393249034
516125.598784937,123.03150833497057,0.0497797027671933,4.9779702767193295e-05,0.222160294651985,-0.981960713863372,1.20412100851535
516125.620384914,123.05310831195675,0.0497884425500763,4.97884425500763e-05,0.221110135316848,-0.982017993927002,1.20312812924385
516125.645184895,123.07790829299483,0.0497984769799444,4.97984769799444e-05,0.220098152756691,-0.982170760631561,1.20226891338825
516125.667384887,123.10010828496888,0.0498074597000612,4.98074597000612e-05,0.219086185097694,-0.982037127017974,1.20112331211566
516125.693784868,123.12650826596655,0.0498181414481666,4.98181414481666e-05,0.218074202537536,-0.981979846954345,1.20005404949188
516125.716784844,123.14950824197149,0.0498274473947352,4.98274473947352e-05,0.217062219977378,-0.982017993927002,1.19908021390438
516125.739584824,123.17230822198326,0.0498366726283033,4.98366726283033e-05,0.215954780578613,-0.981979846954345,1.19793462753295
516125.762184815,123.19490821298677,0.0498458166826036,4.98458166826036e-05,0.214942798018455,-0.982208907604217,1.19715170562267
516125.783184797,123.21590819495032,0.0498543136765559,4.98543136765559e-05,0.213930815458297,-0.98222804069519,1.19615885615348
516125.804784773,123.23750817094697,0.0498630534665121,4.9863053466512095e-05,0.21286155283451,-0.982208907604217,1.19507046043872
516125.827584764,123.26030816195998,0.0498722786930071,4.98722786930071e-05,0.211849585175514,-0.982075273990631,1.19392485916614
516125.852384751,123.28510814899346,0.0498823134760856,4.98823134760856e-05,0.210837602615356,-0.982151627540588,1.19298923015594
516125.872384728,123.30510812596185,0.049890405803038,4.9890405803038e-05,0.209825620055198,-0.982151627540588,1.19197724759578
516125.895584708,123.32830810599262,0.0498997925933003,4.98997925933003e-05,0.208737269043922,-0.982151627540588,1.19088889658451
516125.918184699,123.35090809699614,0.0499089363898237,4.99089363898237e-05,0.207725286483764,-0.982017993927002,1.18974328041076
516125.938184681,123.37090807897039,0.0499170284942587,4.99170284942587e-05,0.206713318824768,-0.982037127017974,1.18875044584274
516125.958384661,123.39110805897508,0.0499252020286719,4.99252020286719e-05,0.205682247877121,-0.982037127017974,1.18771937489509
516125.978984655,123.4117080529686,0.0499335370279285,4.99335370279285e-05,0.204632073640823,-0.982189834117889,1.18682190775871
516125.998784634,123.43150803196477,0.0499415482886367,4.99415482886367e-05,0.203620091080665,-0.982094347476959,1.18571443855762
516126.018584618,123.45130801596679,0.0499495593798491,4.99495593798491e-05,0.202608123421669,-0.982170760631561,1.18477888405323
516126.038584612,123.47130800999003,0.0499576517103248,4.9957651710324795e-05,0.201596140861511,-0.982075273990631,1.18367141485214
516126.059184589,123.49190798698692,0.0499659867166611,4.99659867166611e-05,0.200545966625213,-0.982037127017974,1.18258309364318
516126.078184576,123.51090797397774,0.0499736740339729,4.9973674033972894e-05,0.199495807290077,-0.982017993927002,1.18151380121707
516126.098384564,123.53110796195688,0.0499818472081489,4.99818472081489e-05,0.198483824729919,-0.982170760631561,1.18065458536148
516126.114984544,123.5477079419652,0.0499885636347134,4.99885636347134e-05,0.197452753782272,-0.982056200504303,1.17950895428657
516126.133784541,123.56650793895824,0.0499961703273256,4.9996170327325595e-05,0.196402594447135,-0.982075273990631,1.17847786843776
516126.154784518,123.58750791597413,0.0500046670881973,5.00046670881973e-05,0.195390611886978,-0.982113480567932,1.17750409245491
516126.172584505,123.60530790296616,0.0500118691808581,5.00118691808581e-05,0.19437862932682,-0.982113480567932,1.17649210989475
516126.188584495,123.6213078929577,0.0500183432599703,5.00183432599703e-05,0.193290278315544,-0.982304394245147,1.17559467256069
516126.209384473,123.64210787095362,0.05002675924423,5.002675924423e-05,0.192278295755386,-0.982151627540588,1.17442992329597
516126.225784473,123.65850787097588,0.050033394685818,5.0033394685818005e-05,0.191266328096389,-0.982285320758819,1.1735516488552
516126.244184448,123.67690784594743,0.0500408394084374,5.00408394084374e-05,0.190235257148742,-0.98222804069519,1.17246329784393
516126.262184443,123.69490784098161,0.0500481223024262,5.00481223024262e-05,0.189127802848815,-0.982208907604217,1.17133671045303
516126.281584425,123.71430782298557,0.0500559722112615,5.0055972211261496e-05,0.188115820288658,-0.982208907604217,1.17032472789287
516126.297984411,123.73070780897979,0.0500626078753338,5.00626078753338e-05,0.187103852629661,-0.982151627540588,1.16925548017025
516126.316184401,123.74890779895941,0.0500699714328712,5.00699714328712e-05,0.186091870069503,-0.982170760631561,1.16826263070106
516126.333384381,123.76610777899623,0.0500769309414757,5.00769309414757e-05,0.185060799121856,-0.98222804069519,1.16728883981704
516126.348784378,123.78150777594419,0.0500831619031892,5.00831619031892e-05,0.184048816561698,-0.982189834117889,1.16623865067958
516126.364384358,123.79710775596322,0.0500894736909336,5.00894736909336e-05,0.182960465550422,-0.982285320758819,1.16524578630924
516126.382584356,123.8153077539755,0.050096837739408,5.0096837739408e-05,0.181948482990264,-0.982208907604217,1.16415739059448
516126.399184331,123.83190772897797,0.0501035543001625,5.01035543001625e-05,0.180898323655128,-0.982170760631561,1.16306908428669
516126.416584329,123.84930772695225,0.0501105944723619,5.01105944723619e-05,0.17984814941883,-0.982170760631561,1.16201891005039
516126.432784309,123.86550770699978,0.0501171491903331,5.01171491903331e-05,0.178797990083694,-0.98213255405426,1.16093054413795
516126.446984307,123.87970770499669,0.050122894750807,5.0122894750807e-05,0.177786007523536,-0.982266187667846,1.16005219519138
516126.462184285,123.89490768295946,0.050129044840561,5.0129044840561e-05,0.176716744899749,-0.982266187667846,1.15898293256759
516126.479984281,123.91270767897367,0.0501362471098237,5.01362471098237e-05,0.175704777240753,-0.982208907604217,1.15791368484497
516126.496984262,123.92970765999053,0.050143125410974,5.0143125410974e-05,0.174654603004455,-0.982113480567932,1.15676808357238
516126.511784257,123.94450765498914,0.0501491139652331,5.0149113965233095e-05,0.173642635345459,-0.982075273990631,1.15571790933609
516126.524584238,123.95730763598112,0.0501542930371231,5.01542930371231e-05,0.172630652785301,-0.982438027858734,1.15506868064403
516126.540984237,123.97370763495564,0.0501609290543728,5.0160929054372795e-05,0.171523198485374,-0.98213255405426,1.15365575253963
516126.557784216,123.99050761398394,0.0501677267025245,5.01677267025245e-05,0.170511230826377,-0.98222804069519,1.15273927152156
516126.571384215,124.00410761300009,0.0501732294846971,5.01732294846971e-05,0.16949924826622,-0.982266187667846,1.15176543593406
516126.584184194,124.0169075919548,0.0501784087366527,5.01784087366527e-05,0.168487265706062,-0.98222804069519,1.15071530640125
516126.599384192,124.03210758999921,0.0501845588228834,5.01845588228834e-05,0.167437106370925,-0.982323467731475,1.1497605741024
516126.614584172,124.04730756999925,0.0501907087184058,5.01907087184058e-05,0.166425123810768,-0.982151627540588,1.14857675135135
516126.627184168,124.05990756599931,0.0501958069501254,5.0195806950125396e-05,0.165317669510841,-0.982304394245147,1.14762206375598
516126.641784155,124.07450755295577,0.0502017143498923,5.02017143498923e-05,0.164286598563194,-0.982342541217804,1.14662913978099
516126.657784145,124.09050754294731,0.0502081883159743,5.02081883159743e-05,0.163274630904197,-0.982285320758819,1.14555995166301
516126.669984137,124.10270753497025,0.0502131243198844,5.02131243198844e-05,0.16218626499176,-0.98222804069519,1.14441430568695
516126.683584123,124.11630752094788,0.0502186272892421,5.0218627289242095e-05,0.161155194044113,-0.982247114181518,1.14340230822563
516126.698384119,124.13110751699423,0.0502246156033608,5.02246156033608e-05,0.160085946321487,-0.982189834117889,1.14227578043937
516126.711984098,124.14470749598695,0.0502301185056235,5.02301185056235e-05,0.15905487537384,-0.982247114181518,1.14130198955535
516126.723384099,124.15610749699408,0.0502347309334542,5.02347309334542e-05,0.157985612750053,-0.982304394245147,1.1402900069952
516126.738184081,124.17090747895418,0.050240719279309,5.0240719279309e-05,0.156973630189895,-0.982208907604217,1.13918253779411
516126.751384076,124.18410747399321,0.0502460598442951,5.02460598442951e-05,0.155942559242248,-0.982189834117889,1.13813239336013
516126.761384071,124.19410746899666,0.0502501060377756,5.02501060377756e-05,0.154911488294601,-0.982380747795105,1.1372922360897
516126.777184053,124.20990745094605,0.0502564988493455,5.02564988493455e-05,0.153899505734443,-0.982170760631561,1.136070266366
516126.787384053,124.22010745096486,0.0502606260313325,5.02606260313325e-05,0.152811154723167,-0.982361674308776,1.13517282903194
516126.800784034,124.23350743198534,0.0502660478108723,5.02660478108723e-05,0.151799172163009,-0.982247114181518,1.13404628634452
516126.814984029,124.24770742695546,0.0502717930605411,5.02717930605411e-05,0.150787204504013,-0.982208907604217,1.13299611210823
516126.824984023,124.25770742096938,0.0502758389962182,5.02758389962182e-05,0.149679750204086,-0.982323467731475,1.13200321793556
516126.838984007,124.27170740498696,0.0502815035788019,5.0281503578801904e-05,0.148572295904159,-0.982189834117889,1.13076213002204
516126.851184007,124.28390740498435,0.0502864400100906,5.02864400100906e-05,0.147560328245163,-0.982170760631561,1.12973108887672
516126.862383989,124.29510738694808,0.0502909715200331,5.02909715200331e-05,0.146548345685005,-0.982247114181518,1.12879545986652
516126.875983982,124.30870737996884,0.0502964744011229,5.02964744011229e-05,0.145517274737358,-0.98213255405426,1.12764982879161
516126.884983981,124.31770737899933,0.0503001158816681,5.03001158816681e-05,0.1445052921772,-0.982266187667846,1.12677147984504
516126.897583959,124.33030735695502,0.0503052137813766,5.0305213781376594e-05,0.143493309617042,-0.982208907604217,1.12570221722126
516126.907783959,124.34050735697383,0.0503093409527473,5.03093409527473e-05,0.142443150281906,-0.982189834117889,1.12463298439979
516126.920183951,124.35290734894807,0.0503143581924438,5.03143581924438e-05,0.141412079334259,-0.982151627540588,1.12356370687484
516126.930383935,124.36310733295977,0.0503184851307537,5.03184851307537e-05,0.140381008386611,-0.982247114181518,1.12262812256813
516126.941583935,124.37430733296787,0.0503230169020758,5.03230169020758e-05,0.139369025826454,-0.98222804069519,1.12159706652164
516126.953183924,124.38590732199373,0.0503277102512915,5.03277102512915e-05,0.138357043266296,-0.982094347476959,1.12045139074325
516126.962183912,124.39490730996476,0.0503313515799575,5.03313515799575e-05,0.137345075607299,-0.982285320758819,1.11963039636611
516126.974583913,124.40730731096119,0.0503363689750167,5.03363689750167e-05,0.136256724596023,-0.981979846954345,1.11823657155036
516126.983583902,124.41630729997996,0.0503400103531214,5.03400103531214e-05,0.135206550359726,-0.982151627540588,1.11735817790031
516126.99558389,124.42830728797708,0.0503448653544452,5.0344865354445196e-05,0.134194567799568,-0.982113480567932,1.1163080483675
516127.005183889,124.43790728697786,0.0503487497227787,5.0348749722778705e-05,0.133068025112152,-0.982189834117889,1.11525785923004
516127.017383875,124.4501072729472,0.0503536861010723,5.0353686101072295e-05,0.132017865777015,-0.982056200504303,1.11407406628131
516127.026983867,124.45970726496307,0.0503575703599452,5.0357570359945206e-05,0.131005883216857,-0.982170760631561,1.11317664384841
516127.037583867,124.47030726494268,0.0503618591021563,5.03618591021563e-05,0.129993915557861,-0.982075273990631,1.11206918954849
516127.044783858,124.47750725597143,0.0503647722724609,5.03647722724609e-05,0.128981932997703,-0.982285320758819,1.11126725375652
516127.056983843,124.48970724095125,0.0503697087249358,5.03697087249358e-05,0.127912670373916,-0.982208907604217,1.11012157797813
516127.065583843,124.49830724095227,0.0503731887088152,5.03731887088152e-05,0.126900687813758,-0.982170760631561,1.10907144844532
516127.076783834,124.5095072319964,0.0503777200986941,5.03777200986941e-05,0.125869616866111,-0.982075273990631,1.10794489085674
516127.085383819,124.51810721697984,0.0503811998106174,5.0381199810617404e-05,0.124819450080394,-0.982189834117889,1.10700928419828
516127.096583819,124.52930721698795,0.050385731497142,5.0385731497142e-05,0.123731099069118,-0.982075273990631,1.10580637305975
516127.103983817,124.53670721495291,0.0503887257583736,5.0388725758373605e-05,0.12271911650896,-0.982170760631561,1.10488987714052
516127.115383798,124.54810719599482,0.0503933382815718,5.0393338281571805e-05,0.121611669659614,-0.982113480567932,1.10372515022754
516127.123583796,124.55630719399778,0.0503966560482581,5.0396656048258094e-05,0.120561502873897,-0.982247114181518,1.10280861705541
516127.133783796,124.56650719395839,0.0504007831878595,5.04007831878595e-05,0.11953043192625,-0.982094347476959,1.10162477940321
516127.142183782,124.57490717998007,0.0504041819854643,5.0404181985464296e-05,0.118518456816673,-0.982189834117889,1.10070829093456
516127.150783773,124.58350717095891,0.0504076617786354,5.04076617786354e-05,0.117468290030956,-0.982094347476959,1.09956263750791
516127.160583772,124.5933071699692,0.050411627050711,5.0411627050711e-05,0.116399027407169,-0.982113480567932,1.0985125079751
516127.169383766,124.60210716398433,0.0504151876592966,5.0415187659296594e-05,0.115387052297592,-0.982094347476959,1.09748139977455
516127.177783751,124.61050714895828,0.0504185863014724,5.0418586301472396e-05,0.114336885511875,-0.982113480567932,1.0964503660798
516127.18598375,124.61870714795077,0.0504219039268758,5.0421903926875805e-05,0.113324902951717,-0.98213255405426,1.09545745700597
516127.19638375,124.62910714797908,0.0504261119490066,5.04261119490066e-05,0.11229383200407,-0.982037127017974,1.09433095902204
516127.203583737,124.63630713499151,0.0504290253065095,5.04290253065095e-05,0.111243665218353,-0.982189834117889,1.09343349933624
516127.213183727,124.64590712497011,0.0504329096395372,5.04329096395372e-05,0.110212594270706,-0.982017993927002,1.0922305881977
516127.221183726,124.6539071239531,0.0504361466049154,5.04361466049154e-05,0.109124243259429,-0.982056200504303,1.09118044376373
516127.230183722,124.6629071199568,0.0504397880360284,5.04397880360284e-05,0.108074076473712,-0.981998920440673,1.09007299691438
516127.238183708,124.67090710595949,0.0504430250755812,5.0443025075581204e-05,0.107004813849926,-0.981941640377044,1.08894645422697
516127.246183704,124.67890710197389,0.0504462621186639,5.0446262118663896e-05,0.105954647064209,-0.982342541217804,1.08829718828201
516127.254983703,124.68770710099488,0.0504498224553001,5.0449822455300104e-05,0.104923576116561,-0.981941640377044,1.0868652164936
516127.262183697,124.69490709499223,0.0504527355761792,5.04527355761792e-05,0.103892505168914,-0.982208907604217,1.08610141277313
516127.270783683,124.70350708096521,0.0504562152421871,5.0456215242187103e-05,0.102804154157638,-0.982094347476959,1.08489850163459
516127.27938368,124.71210707799764,0.050459694915268,5.0459694915268e-05,0.101753987371921,-0.981960713863372,1.08371470123529
516127.28678368,124.71950707799988,0.0504626891623801,5.04626891623801e-05,0.100722916424274,-0.981941640377044,1.08266455680131
516127.294583672,124.72730706998846,0.0504658449697295,5.04658449697295e-05,0.0998255014419555,-0.981922566890716,1.08174806833267
516127.294783672,124.72750706999796,0.0504659258911277,5.04659258911277e-05,0.0997682139277458,-0.981903433799743,1.08167164772748
