time/s,reltime/s,C/mA.h,C/A.h,Ewe/V,Ece/V,Ewe-Ece/V,,soc_init (lookup in 0.2C),,Q/Q_max,soc_cell
517023.29731612,0,2.02131244871351E-07,2.02131244871351E-10,0.386128813028335,-1.01878499984741,1.40491381287574,,0.000347608787119108,,2.77271940838616E-06,0.000350381506527494
517023.29751612,0.00020000000949949,4.04523822996351E-07,4.04523822996351E-10,0.41892322897911,-1.02111780643463,1.44004103541374,,,,5.54902363506654E-06,0.000353157810754175
517023.29771612,0.000400000018998981,6.07032961315578E-07,6.07032961315578E-10,0.435840457677841,-1.02241611480712,1.45825657248497,,,,8.32692676701753E-06,0.000355935713886126
517023.297916119,0.000599998980760574,8.09595068295796E-07,8.09595068295796E-10,0.445215582847595,-1.02382886409759,1.46904444694519,,,,1.11055564923977E-05,0.000358714343611506
517023.298116119,0.000799998990260065,1.01214306884341E-06,1.01214306884341E-09,0.451402008533477,-1.02476441860199,1.47616642713546,,,,1.38839927139014E-05,0.000361492779833009
517023.298316119,0.000999998999759555,1.21475817097557E-06,1.21475817097557E-09,0.455850899219512,-1.02554714679718,1.48139804601669,,,,1.66633493960984E-05,0.000364272136515206
517023.298516118,0.00119999801972881,1.41733797391255E-06,1.41733797391255E-09,0.45924961566925,-1.02623438835144,1.48548400402069,,,,1.94422218643697E-05,0.000367051008983478
517023.298716118,0.00139999797102064,1.6199036306805E-06,1.6199036306805E-09,0.462132811546325,-1.02657806873321,1.48871088027954,,,,2.22209002836831E-05,0.000369829687402791
517023.298916118,0.00159999798052013,1.82248343361748E-06,1.82248343361748E-09,0.464557737112045,-1.02695989608764,1.49151763319969,,,,2.49997727519545E-05,0.000372608559871063
517023.299116117,0.00179999700048938,2.02505262692769E-06,2.02505262692769E-09,0.466753512620925,-1.02749443054199,1.49424794316291,,,,2.77784996835074E-05,0.000375387286802615
517023.299316117,0.00199999700998887,2.22764301300048E-06,2.22764301300048E-09,0.468777477741241,-1.02774262428283,1.49652010202407,,,,3.05575173251095E-05,0.000378166304444218
517023.299516117,0.00219999701948836,2.43025811513265E-06,2.43025811513265E-09,0.470515042543411,-1.02799081802368,1.49850586056709,,,,3.33368740073066E-05,0.000380945661126415
517023.299716116,0.00239999598124996,2.6328131755193E-06,2.6328131755193E-09,0.472309857606887,-1.02816271781921,1.5004725754261,,,,3.61154070715953E-05,0.000383724194190703
517023.299916116,0.00259999599074945,2.83538942866855E-06,2.83538942866855E-09,0.473913758993148,-1.02852547168731,1.50243923068046,,,,3.88942308459335E-05,0.000386503017965042
517023.300116116,0.00279999600024894,3.03799747096167E-06,3.03799747096167E-09,0.475383996963501,-1.02856361865997,1.50394761562347,,,,4.16734906853453E-05,0.000389282277804453
517023.300316115,0.00299999502021819,3.24055608113606E-06,3.24055608113606E-09,0.476911485195159,-1.02871632575988,1.50562781095504,,,,4.44520724435674E-05,0.000392060859562675
517023.300516115,0.00319999497151002,3.44313938087887E-06,3.44313938087887E-09,0.478248059749603,-1.02890729904174,1.50715535879135,,,,4.72309928789968E-05,0.000394839779998105
517023.300716115,0.00339999498100951,3.64574036333296E-06,3.64574036333296E-09,0.479699224233627,-1.02898359298706,1.50868281722068,,,,5.00101558756236E-05,0.000397618942994732
517023.300916114,0.00359999400097877,3.84833780924479E-06,3.84833780924479E-09,0.480902135372161,-1.02909815311431,1.51000028848648,,,,5.27892703600108E-05,0.000400398057479119
517023.301116114,0.00379999401047826,4.05094230175018E-06,4.05094230175018E-09,0.482295989990234,-1.02934634685516,1.51164233684539,,,,5.55684815054894E-05,0.000403177268624597
517023.301316114,0.00399999401997775,4.25351855489942E-06,4.25351855489942E-09,0.483575284481048,-1.02928912639617,1.51286441087722,,,,5.83473052798274E-05,0.000405956092398935
517023.301516113,0.00419999298173934,4.45608066187964E-06,4.45608066187964E-09,0.484720915555954,-1.02953732013702,1.51425823569297,,,,6.11259350052077E-05,0.000408734722124316
517023.301716113,0.00439999299123883,4.65864631864759E-06,4.65864631864759E-09,0.486038386821746,-1.02949917316436,1.51553755998611,,,,6.39046134245211E-05,0.000411513400543629
517023.301916113,0.00459999300073832,4.86124376455942E-06,4.86124376455942E-09,0.487164944410324,-1.02947998046875,1.51664492487907,,,,6.66837279089084E-05,0.000414292515028016
517023.302116112,0.00479999202070758,5.06382706430223E-06,5.06382706430223E-09,0.488196015357971,-1.02967095375061,1.51786696910858,,,,6.94626483443379E-05,0.000417071435463446
517023.302316112,0.00499999197199941,5.26644216643439E-06,5.26644216643439E-09,0.489513486623764,-1.02970910072326,1.51922258734703,,,,7.22420050265348E-05,0.000419850792145643
517023.302716111,0.00539999100146815,5.67159116268157E-06,5.67159116268157E-09,0.491518348455429,-1.02990007400512,1.52141842246055,,,,7.7799604426359E-05,0.000425408391545467
517023.302916111,0.00559999101096764,5.87418860859341E-06,5.87418860859341E-09,0.492625802755355,-1.02988100051879,1.52250680327415,,,,8.05787189107464E-05,0.000428187506029854
517023.303116111,0.00579999102046713,6.07680018742879E-06,6.07680018742879E-09,0.493714153766632,-1.03003370761871,1.52374786138534,,,,8.33580272623977E-05,0.000430966814381506
517023.30351611,0.00619998999172822,6.48198446962568E-06,6.48198446962568E-09,0.495680838823318,-1.03012919425964,1.52581003308296,,,,8.89161106944538E-05,0.000436524897813562
517023.303916109,0.00659998902119696,6.88716876506805E-06,6.88716876506805E-09,0.497647494077682,-1.03018641471862,1.52783390879631,,,,9.44741943082037E-05,0.000442082981427312
517023.304316109,0.00699998898198828,7.2923848496543E-06,7.2923848496543E-09,0.499442338943481,-1.03020548820495,1.52964782714843,,,,0.000100032713987027,0.000447641501106135
517023.304516108,0.00719998800195754,7.49500348832872E-06,7.49500348832872E-09,0.50047343969345,-1.03033912181854,1.53081256151199,,,,0.000102812119181464,0.000450420906300572
517023.304916109,0.00759998901048675,7.90019132031334E-06,7.90019132031334E-09,0.502115488052368,-1.03022456169128,1.53234004974365,,,,0.000108370251307453,0.000455979038426561
517023.305116109,0.00779998901998624,8.10280289914872E-06,8.10280289914872E-09,0.503165662288665,-1.03026282787323,1.53342849016189,,,,0.000111149559659105,0.000458758346778213
517023.305516109,0.00819998898077756,8.50800483756595E-06,8.50800483756595E-09,0.504693150520324,-1.03033912181854,1.53503227233886,,,,0.00011670788528897,0.000464316672408078
517023.305916109,0.00859998899977654,8.91318913300832E-06,8.91318913300832E-09,0.506583452224731,-1.0304536819458,1.53703713417053,,,,0.00012226596890272,0.000469874756021828
517023.306316109,0.00899998901877552,9.31834869914584E-06,9.31834869914584E-09,0.508034586906433,-1.0304536819458,1.53848826885223,,,,0.000127823713294182,0.00047543250041329
517023.30671611,0.00939998996909708,9.72347647613949E-06,9.72347647613949E-09,0.509695768356323,-1.03056824207305,1.54026401042938,,,,0.000133381021620569,0.000480989808739677
517023.30711611,0.00979998998809606,1.0128650161955E-05,1.0128650161955E-08,0.511146903038024,-1.03060638904571,1.54175329208374,,,,0.000138938959697599,0.000486547746816707
517023.30751611,0.010199990007095,1.05338662465413E-05,1.05338662465413E-08,0.512789011001586,-1.03060638904571,1.5433954000473,,,,0.000144497479376424,0.000492106266495532
517023.30791611,0.0105999899678864,1.0939068198204E-05,1.0939068198204E-08,0.514259219169616,-1.03062558174133,1.54488480091095,,,,0.000150055805187984,0.000497664592307092
517023.308316111,0.0109999909764156,1.13442383474773E-05,1.13442383474773E-08,0.515519440174102,-1.03072094917297,1.54624038934707,,,,0.000155613694752775,0.000503222481871883
517023.308716111,0.0113999909954146,1.17494544188181E-05,1.17494544188181E-08,0.517046928405761,-1.03062558174133,1.54767251014709,,,,0.000161172214249905,0.000508781001369013
517023.30911611,0.0117999899666756,1.21547022925482E-05,1.21547022925482E-08,0.518383502960205,-1.03072094917297,1.54910445213317,,,,0.000166731169993802,0.00051433995711291
517023.30951611,0.0121999899856746,1.25598865879906E-05,1.25598865879906E-08,0.51960551738739,-1.03077828884124,1.55038380622863,,,,0.000172289253607553,0.000519898040726661
517023.30991611,0.0125999900046736,1.29650814665688E-05,1.29650814665688E-08,0.520942091941833,-1.03072094917297,1.5516630411148,,,,0.000177847482394634,0.000525456269513742
517023.31031611,0.0129999899654649,1.33702586756812E-05,1.33702586756812E-08,0.522202312946319,-1.03087377548217,1.55307608842849,,,,0.000183405468802211,0.000531014255921319
517023.31071611,0.0133999899844639,1.37753935390048E-05,1.37753935390048E-08,0.523405253887176,-1.0308164358139,1.55422168970108,,,,0.000188962874334771,0.000536571661453879
517023.31111611,0.0137999900034629,1.41805389722188E-05,1.41805389722188E-08,0.52458906173706,-1.03091192245483,1.55550098419189,,,,0.000194520424858968,0.000542129211978076
517023.31151611,0.0141999900224619,1.45857374005847E-05,1.45857374005847E-08,0.525601029396057,-1.03091192245483,1.55651295185089,,,,0.000200078702339982,0.00054768748945909
517023.31191611,0.0145999899832532,1.49908757607142E-05,1.49908757607142E-08,0.526803970336914,-1.03095006942749,1.5577540397644,,,,0.000205636155839701,0.000553244942958809
517023.31231611,0.0149999900022522,1.53960635529624E-05,1.53960635529624E-08,0.527949571609497,-1.03085458278656,1.55880415439605,,,,0.000211194287420609,0.000558803074539717
517023.31271611,0.0153999900212511,1.58012443118625E-05,1.58012443118625E-08,0.529037952423095,-1.03100740909576,1.56004536151886,,,,0.000216752322522119,0.000564361109641227
517023.31331611,0.015999989991542,1.64090048207177E-05,1.64090048207177E-08,0.530546367168426,-1.03095006942749,1.56149643659591,,,,0.000225089229365126,0.000572698016484234
517023.31371611,0.0163999900105409,1.68141926129659E-05,1.68141926129659E-08,0.531558334827423,-1.03108370304107,1.5626420378685,,,,0.000230647360946034,0.000578256148065142
517023.31411611,0.0167999899713323,1.72194051742553E-05,1.72194051742553E-08,0.53260850906372,-1.03104555606842,1.56365406513214,,,,0.000236205832294311,0.000583814619413419
517023.31451611,0.0171999899903312,1.76246283054351E-05,1.76246283054351E-08,0.533639550209045,-1.03114104270935,1.56478059291839,,,,0.000241764448634226,0.000589373235753334
517023.315116109,0.0177999889710918,1.82324418359332E-05,1.82324418359332E-08,0.53495705127716,-1.031179189682,1.56613624095916,,,,0.000250102082797438,0.000597710869916546
517023.315716109,0.0183999889995903,1.88402271270752E-05,1.88402271270752E-08,0.536274552345275,-1.03121733665466,1.56749188899993,,,,0.000258439329589509,0.000606048116708617
517023.316316109,0.0189999889698811,1.94479806158277E-05,1.94479806158277E-08,0.537630200386047,-1.03116011619567,1.56879031658172,,,,0.000266776140134811,0.000614384927253919
517023.316916109,0.0195999889983796,2.00557447142071E-05,2.00557447142071E-08,0.538909494876861,-1.03137016296386,1.57027965784072,,,,0.000275113096216833,0.000622721883335941
517023.317516109,0.0201999889686704,2.06635087993409E-05,2.06635087993409E-08,0.540112435817718,-1.03140830993652,1.57152074575424,,,,0.000283450052117159,0.000631058839236267
517023.31811611,0.0207999899866991,2.12712657848993E-05,2.12712657848993E-08,0.541391730308532,-1.03144645690918,1.57283818721771,,,,0.00029178691062962,0.000639395697748728
517023.31871611,0.0213999900151975,2.18790227837032E-05,2.18790227837032E-08,0.542460978031158,-1.03144645690918,1.57390743494033,,,,0.000300123769323775,0.000647732556442883
517023.319316111,0.0219999909750186,2.24867904053794E-05,2.24867904053794E-08,0.543740272521972,-1.03142738342285,1.57516765594482,,,,0.000308460773736343,0.000656069560855451
517023.319916111,0.0225999910035171,2.30945827431148E-05,2.30945827431148E-08,0.544752240180969,-1.03140830993652,1.57616055011749,,,,0.000316798117189503,0.000664406904308611
517023.320516111,0.0231999909738079,2.37023150655958E-05,2.37023150655958E-08,0.545783281326293,-1.03133189678192,1.57711517810821,,,,0.000325134637388145,0.000672743424507253
517023.32111611,0.0237999900127761,2.43101250860426E-05,2.43101250860426E-08,0.546814382076263,-1.03148460388183,1.57829898595809,,,,0.000333472223402505,0.000681081010521613
517023.321716109,0.0243999889935367,2.49179174105326E-05,2.49179174105326E-08,0.547940909862518,-1.03137016296386,1.57931107282638,,,,0.000341809566673973,0.000689418353793081
517023.322516107,0.0251999869942665,2.57282648086547E-05,2.57282648086547E-08,0.549277484416961,-1.03144645690918,1.58072394132614,,,,0.000352925443191423,0.000700534230310531
517023.323316106,0.0259999859845266,2.6538626299964E-05,2.6538626299964E-08,0.550575911998748,-1.0314655303955,1.58204144239425,,,,0.000364041513031056,0.000711650300150164
517023.324116105,0.0267999849747866,2.73489948776033E-05,2.73489948776033E-08,0.551855206489563,-1.03148460388183,1.58333981037139,,,,0.000375157680076863,0.000722766467195971
517023.324716104,0.0273999840137549,2.79568154811859E-05,2.79568154811859E-08,0.552867174148559,-1.03142738342285,1.58429455757141,,,,0.000383495411264553,0.000731104198383661
517023.325516102,0.0281999820144847,2.87671664158503E-05,2.87671664158503E-08,0.554031908512115,-1.03159916400909,1.58563107252121,,,,0.000394611336294243,0.000742220123413351
517023.326316101,0.0289999810047448,2.95775667958789E-05,2.95775667958789E-08,0.555082082748413,-1.03150379657745,1.58658587932586,,,,0.000405727939586816,0.000753336726705924
517023.3271161,0.0297999799950048,3.03879883686701E-05,3.03879883686701E-08,0.556208610534668,-1.0314655303955,1.58767414093017,,,,0.000416844833589439,0.000764453620708547
517023.327916098,0.0305999779957347,3.11982863081826E-05,3.11982863081826E-08,0.557239651679992,-1.03163743019104,1.58887708187103,,,,0.000427960031662313,0.000775568818781421
517023.328916097,0.0315999769954942,3.2211255841785E-05,3.2211255841785E-08,0.558518946170806,-1.03158009052276,1.59009903669357,,,,0.000441855361341358,0.000789464148460466
517023.329916095,0.0325999750057235,3.32241865264044E-05,3.32241865264044E-08,0.559626400470733,-1.03173279762268,1.59135919809341,,,,0.000455750158112543,0.000803358945231651
517023.330916093,0.0335999730159529,3.42371348672443E-05,3.42371348672443E-08,0.560810208320617,-1.03159916400909,1.59240937232971,,,,0.00046964519708154,0.000817253984200648
517023.331716092,0.0343999720062129,3.50474469131893E-05,3.50474469131893E-08,0.561841309070587,-1.03171372413635,1.59355503320694,,,,0.000480760588658289,0.000828369375777397
517023.33291609,0.0355999699677341,3.62629645135667E-05,3.62629645135667E-08,0.563101530075073,-1.03180921077728,1.59491074085235,,,,0.000497434355467307,0.000845043142586415
517023.334116088,0.0367999679874629,3.7478598607911E-05,3.7478598607911E-08,0.564304411411285,-1.03182828426361,1.59613269567489,,,,0.000514109720273128,0.000861718507392236
517023.335116086,0.0377999659976922,3.84915434916814E-05,3.84915434916814E-08,0.565373659133911,-1.03196191787719,1.5973355770111,,,,0.000528004711820047,0.000875613498939155
517023.336316085,0.0389999650069512,3.9707057568762E-05,3.9707057568762E-08,0.56640475988388,-1.03194284439086,1.59834760427475,,,,0.000544678430298518,0.000892287217417626
517023.337516086,0.0401999659952708,4.09226245880127E-05,4.09226245880127E-08,0.567493081092834,-1.03209555149078,1.59958863258361,,,,0.000561352875007033,0.000908961662126141
517023.338716086,0.04139996599406,4.21382940212885E-05,4.21382940212885E-08,0.568619668483734,-1.03211462497711,1.60073429346084,,,,0.000578028724571859,0.000925637511690967
517023.339916087,0.0425999669823796,4.33539069493611E-05,4.33539069493611E-08,0.569650709629058,-1.03213381767272,1.60178452730178,,,,0.000594703799031016,0.000942312586150124
517023.341316086,0.0439999660011381,4.4771968960762E-05,4.4771968960762E-08,0.570700883865356,-1.03226745128631,1.60296833515167,,,,0.000614155952822524,0.000961764739941632
517023.342516086,0.0451999659999274,4.59875606828265E-05,4.59875606828265E-08,0.571827411651611,-1.03219103813171,1.60401844978332,,,,0.000630830736389938,0.000978439523509046
517023.344116086,0.0467999660177156,4.76082801818847E-05,4.76082801818847E-08,0.572934865951538,-1.03211462497711,1.60504949092865,,,,0.000653062828283741,0.00100067161540285
517023.345516086,0.0481999659677967,4.90264375872082E-05,4.90264375872082E-08,0.574004113674163,-1.03221011161804,1.6062142252922,,,,0.000672516290633857,0.00102012507775297
517023.346916085,0.0495999649865553,5.04446232318878E-05,5.04446232318878E-08,0.575073421001434,-1.03226745128631,1.60734087228775,,,,0.000691970140355114,0.00103957892747422
517023.348516086,0.0511999659938738,5.20653215116924E-05,5.20653215116924E-08,0.576257228851318,-1.03234374523162,1.60860097408294,,,,0.000714201941175479,0.00106181072829459
517023.350116087,0.0527999670011923,5.36860197914971E-05,5.36860197914971E-08,0.577288269996643,-1.0324010848999,1.60968935489654,,,,0.000736433741995845,0.00108404252911495
517023.351916087,0.0545999669702724,5.55093967384762E-05,5.55093967384762E-08,0.57833844423294,-1.03238201141357,1.61072045564651,,,,0.000761445771446861,0.00110905455856597
517023.353716084,0.0563999639707617,5.73327702813678E-05,5.73327702813678E-08,0.579407691955566,-1.03247737884521,1.61188507080078,,,,0.000786457754202576,0.00113406654132168
517023.355716081,0.0583999609807506,5.93587340646319E-05,5.93587340646319E-08,0.580591559410095,-1.0326110124588,1.61320257186889,,,,0.000814248752601261,0.00116185753972037
517023.357916077,0.0605999570107088,6.1587305996153E-05,6.1587305996153E-08,0.581756293773651,-1.03272557258606,1.61448186635971,,,,0.000844819012292908,0.00119242779941202
517023.360116073,0.0627999529824592,6.38157118558883E-05,6.38157118558883E-08,0.582825541496276,-1.03285920619964,1.61568474769592,,,,0.000875386993907933,0.00122299578102704
517023.36231607,0.0649999500019476,6.6044283721182E-05,6.6044283721182E-08,0.583875715732574,-1.0326874256134,1.61656314134597,,,,0.000905957252691111,0.00125356603981022
517023.364516066,0.0671999459736981,6.8272926237848E-05,6.8272926237848E-08,0.585021317005157,-1.03278291225433,1.61780422925949,,,,0.000936528480628916,0.00128413726774802
517023.366516063,0.0691999429836869,7.02988582717047E-05,7.02988582717047E-08,0.586109697818756,-1.03285920619964,1.6189689040184,,,,0.000964319043507609,0.00131192783062672
517023.369316063,0.0719999430002645,7.31351130273607E-05,7.31351130273607E-08,0.58729350566864,-1.03287839889526,1.6201719045639,,,,0.00100322514440824,0.00135083393152735
517023.371916063,0.0745999430073425,7.57688586446974E-05,7.57688586446974E-08,0.588343679904937,-1.03285920619964,1.62120288610458,,,,0.00103935334217692,0.00138696212929603
517023.374716063,0.0773999429657124,7.86051698790656E-05,7.86051698790656E-08,0.589355647563934,-1.0329737663269,1.62232941389083,,,,0.00107826021781983,0.00142586900493894
517023.377516063,0.0801999429822899,8.14414881335364E-05,8.14414881335364E-08,0.59036761522293,-1.03331744670867,1.62368506193161,,,,0.00111716718976044,0.00146477597687955
517023.380516063,0.083199943008367,8.44803438716464E-05,8.44803438716464E-08,0.591379582881927,-1.03318381309509,1.62456339597702,,,,0.0011588524536577,0.00150646124077681
517023.383316064,0.0859999440144748,8.73167010678185E-05,8.73167010678185E-08,0.592429757118225,-1.03331744670867,1.6257472038269,,,,0.00119775995977803,0.00154536874689714
517023.386116059,0.0887999389669858,9.01530476676093E-05,9.01530476676093E-08,0.593441784381866,-1.03335559368133,1.6267973780632,,,,0.00123666732054334,0.00158427610766245
517023.389316054,0.0919999339967035,9.33945997026231E-05,9.33945997026231E-08,0.594511032104492,-1.03331744670867,1.62782847881317,,,,0.00128113305490567,0.00162874184202478
517023.393116047,0.0957999270176515,9.72437568902969E-05,9.72437568902969E-08,0.595542073249816,-1.0334129333496,1.62895500659942,,,,0.00133393356502465,0.00168154235214376
517023.39711604,0.0997999199898914,0.00010129556455877,1.0129556455877E-07,0.596611320972442,-1.03360378742218,1.63021510839462,,,,0.0013895139171299,0.00173712270424901
517023.40131604,0.103999920014758,0.000105549937884012,1.05549937884012E-07,0.597718775272369,-1.03385198116302,1.63157075643539,,,,0.00144787294765449,0.0017954817347736
517023.40511604,0.107799920020625,0.000109399324668778,1.09399324668778E-07,0.598788082599639,-1.03375661373138,1.63254469633102,,,,0.00150067660725347,0.00184828539437258
517023.409516039,0.112199919007253,0.000113856493234634,1.13856493234634E-07,0.599876403808593,-1.03360378742218,1.63348019123077,,,,0.00156181746549567,0.00190942625261478
517023.413716041,0.11639992101118,0.000118110855844285,1.18110855844285E-07,0.600907504558563,-1.03392839431762,1.63483589887619,,,,0.00162017634902997,0.00196778513614908
517023.418916033,0.121599912992679,0.000123378195179833,1.23378195179833E-07,0.601938545703887,-1.03410017490387,1.63603872060775,,,,0.00169243066090306,0.00204003944802217
517023.423916025,0.126599905022886,0.000128443216098679,1.28443216098679E-07,0.603007793426513,-1.03417658805847,1.63718438148498,,,,0.00176190968585294,0.00210951847297205
517023.428516017,0.131199896975886,0.00013310285478168,1.3310285478168E-07,0.604038894176483,-1.03411936759948,1.63815826177597,,,,0.0018258279119572,0.00217343669907631
517023.434116017,0.136799897009041,0.000138775314821137,1.38775314821137E-07,0.60508906841278,-1.03425300121307,1.63934206962585,,,,0.00190363943513219,0.0022512482222513
517023.440916016,0.143599895993248,0.000145663225187195,1.45663225187195E-07,0.606139242649078,-1.03450119495391,1.64064043760299,,,,0.00199812380229348,0.00234573258941259
517023.445916017,0.148599896987434,0.000150727952890926,1.50727952890926E-07,0.607208490371704,-1.0345584154129,1.6417669057846,,,,0.00206759880508815,0.00241520759220726
517023.451716007,0.154399887018371,0.000156603148063023,1.56603148063023E-07,0.608239531517028,-1.03453934192657,1.6427788734436,,,,0.00214819133145436,0.00249580011857347
517023.459115995,0.161799874971621,0.000164099013328552,1.64099013328552E-07,0.609251499176025,-1.03474938869476,1.64400088787078,,,,0.0022510152719966,0.00259862405911571
517023.466115993,0.168799872975796,0.000171189980427424,1.71189980427424E-07,0.610301673412323,-1.03482568264007,1.64512735605239,,,,0.00234828505387413,0.00269589384099324
517023.473515993,0.176199872978032,0.00017868588815795,1.7868588815795E-07,0.611332774162292,-1.034921169281,1.64625394344329,,,,0.00245110957692661,0.00279871836404572
517023.481115987,0.183799866994377,0.000186384354405933,1.86384354405933E-07,0.612402021884918,-1.03509294986724,1.64749497175216,,,,0.00255671268046547,0.00290432146758458
517023.489115973,0.191799852997065,0.00019448800139957,1.9448800139957E-07,0.613528549671173,-1.03507387638092,1.64860242605209,,,,0.00266787381892414,0.00301548260604325
517023.50011597,0.202799849968869,0.000205630415770742,2.05630415770742E-07,0.61457872390747,-1.03547477722168,1.65005350112915,,,,0.00282071900920085,0.00316832779631996
517023.508115971,0.210799850989133,0.000213734140568309,2.13734140568309E-07,0.615590691566467,-1.03526484966278,1.65085554122924,,,,0.00293188121492879,0.0032794900020479
517023.517715955,0.220399834972341,0.000223458581328392,2.23458581328392E-07,0.616640865802764,-1.03560841083526,1.65224927663803,,,,0.0030652754640383,0.00341288425115741
517023.527515948,0.230199827987235,0.000233386085669199,2.33386085669199E-07,0.617671966552734,-1.03568482398986,1.6533567905426,,,,0.00320145522179971,0.00354906400891882
517023.539315948,0.241999827965628,0.000245339140494664,2.45339140494664E-07,0.618683934211731,-1.03591394424438,1.65459787845611,,,,0.00336542030856878,0.00371302909568789
517023.548315933,0.250999812968075,0.000254455877052413,2.54455877052413E-07,0.619810461997985,-1.03581845760345,1.65562891960144,,,,0.00349047842321554,0.00383808721033465
517023.562115924,0.264799804019276,0.000268434856878386,2.68434856878386E-07,0.620822429656982,-1.03610479831695,1.65692722797393,,,,0.0036822339763839,0.00402984276350301
517023.57311592,0.27579980000155,0.000279577599777115,2.79577599777115E-07,0.621834397315979,-1.03610479831695,1.65793919563293,,,,0.00383508367321145,0.00418269246033056
517023.586115899,0.288799778965768,0.00029274626774258,2.9274626774258E-07,0.622865498065948,-1.03625762462616,1.6591231226921,,,,0.00401572383734678,0.00436333262446589
517023.601315901,0.303999780968297,0.000308143150806427,3.08143150806427E-07,0.623877465724945,-1.036505818367,1.66038328409194,,,,0.00422692936634331,0.00457453815346242
517023.613315882,0.315999761980493,0.0003202987574074,3.202987574074E-07,0.624889433383941,-1.03652489185333,1.66141432523727,,,,0.0043936729411166,0.00474128172823571
517023.627515876,0.330199756019283,0.000334682487209638,3.34682487209638E-07,0.625901460647583,-1.03654396533966,1.66244542598724,,,,0.00459098062015964,0.00493858940727875
517023.645315857,0.347999737015925,0.000352713073531786,3.52713073531786E-07,0.626913428306579,-1.03663945198059,1.66355288028717,,,,0.00483831376586812,0.00518592255298723
517023.662515854,0.365199733991176,0.000370135669377115,3.70135669377115E-07,0.627982676029205,-1.03694486618042,1.66492754220962,,,,0.00507730685016619,0.0054249156372853
517023.68151583,0.384199709980749,0.000389381999293963,3.89381999293963E-07,0.62901371717453,-1.03713583946228,1.66614955663681,,,,0.00534131686274298,0.00568892564986209
517023.701315822,0.403999702015426,0.000409438598752021,4.09438598752021E-07,0.630025744438171,-1.03738403320312,1.66740977764129,,,,0.00561644168384117,0.00596405047096028
517023.721715806,0.424399685987737,0.000430102771573596,4.30102771573596E-07,0.631075859069824,-1.03746032714843,1.66853618621826,,,,0.00589990084463095,0.00624750963175006
517023.742715783,0.445399663003627,0.000451375061564975,4.51375061564975E-07,0.632106959819793,-1.03755581378936,1.66966277360916,,,,0.00619170180473217,0.00653931059185128
517023.763515776,0.466199656017125,0.000472444535387886,4.72444535387886E-07,0.633138060569763,-1.03768944740295,1.67082750797271,,,,0.00648072065003959,0.0068283294371587
517023.78671576,0.489399640006013,0.000495944952342245,4.95944952342245E-07,0.634188175201416,-1.03778493404388,1.6719731092453,,,,0.00680308576601159,0.0071506945531307
517023.811515737,0.514199616969563,0.000521066389083862,5.21066389083862E-07,0.635219275951385,-1.03788042068481,1.6730996966362,,,,0.00714768709305709,0.0074952958801762
517023.842915714,0.545599594013766,0.000552873071948687,5.52873071948687E-07,0.63625031709671,-1.03820490837097,1.67445522546768,,,,0.00758399275649776,0.00793160154361687
517023.866915689,0.569599569018465,0.000577184588630994,5.77184588630994E-07,0.637338697910308,-1.03824317455291,1.67558187246322,,,,0.00791748406901226,0.00826509285613137
517023.903915667,0.606599546968937,0.000614664031492339,6.14664031492339E-07,0.638369739055633,-1.03839588165283,1.67676562070846,,,,0.00843160537026528,0.00877921415738439
517023.931515644,0.634199524007272,0.000642621751374668,6.42621751374668E-07,0.639419913291931,-1.03849136829376,1.67791128158569,,,,0.00881511318758118,0.00916272197470029
517023.96811562,0.670799500017893,0.000679696006377538,6.79696006377538E-07,0.640431940555572,-1.03866314888,1.67909508943557,,,,0.00932367635634483,0.00967128514346394
517024.006915598,0.709599477995653,0.000718999196900261,7.18999196900261E-07,0.641462981700897,-1.03885400295257,1.68031698465347,,,,0.00986281477229439,0.0102104235594135
517024.045115565,0.747799445001874,0.000757693991356425,7.57693991356425E-07,0.642494082450866,-1.03900682926178,1.68150091171264,,,,0.0103936075631883,0.0107412163503074
517024.087715527,0.790399406978395,0.000800846190889676,8.00846190889676E-07,0.643544197082519,-1.03910219669342,1.68264639377594,,,,0.0109855444566485,0.0113331532437676
517024.132915506,0.835599386016838,0.000846632054898474,8.46632054898474E-07,0.644575297832489,-1.03929316997528,1.68386846780777,,,,0.0116136084348213,0.0119612172219404
517024.183915459,0.886599339020904,0.000898293279899491,8.98293279899491E-07,0.645587265491485,-1.03948402404785,1.68507128953933,,,,0.0123222672139848,0.0126698760011039
517024.243715411,0.946399290987756,0.000958868290967411,9.58868290967411E-07,0.646618366241455,-1.03975141048431,1.68636977672576,,,,0.0131532001504446,0.0135008089375637
517024.290515387,0.993199267017189,0.00100627477910783,1.00627477910783E-06,0.647649407386779,-1.03959858417511,1.68724799156189,,,,0.0138034949123159,0.014151103699435
517024.34831534,1.05099921999499,0.00106482415160867,1.06482415160867E-06,0.648680508136749,-1.03977048397064,1.68845099210739,,,,0.0146066413115044,0.0149542500986235
517024.423315281,1.12599916098407,0.00114079613047176,1.14079613047176E-06,0.649711549282074,-1.04007589817047,1.68978744745254,,,,0.015648780939256,0.0159963897263751
517024.486315233,1.18899911298649,0.00120461294086774,1.20461294086774E-06,0.65072351694107,-1.04019045829772,1.6909139752388,,,,0.016524183002301,0.0168717917894201
517024.565515178,1.26819905801676,0.00128484025016095,1.28484025016095E-06,0.651735544204711,-1.04041957855224,1.69215512275695,,,,0.0176246947895878,0.0179723035767069
517024.631315132,1.33399901201483,0.00135149354486995,1.35149354486995E-06,0.652766585350036,-1.04041957855224,1.69318616390228,,,,0.0185390061024684,0.0188866148895875
517024.712315061,1.41499894100707,0.00143354415382279,1.43354415382279E-06,0.653778553009033,-1.04066777229309,1.69444632530212,,,,0.0196645288590232,0.0200121376461423
517024.809314993,1.51199887297116,0.00153180239184697,1.53180239184697E-06,0.65488600730896,-1.04097318649292,1.69585919380188,,,,0.0210123784889845,0.0213599872761036
517024.908714922,1.61139880202245,0.00163249307086732,1.63249307086732E-06,0.655897974967956,-1.0411832332611,1.69708120822906,,,,0.0223935949364516,0.0227412037235707
517025.00991485,1.71259872999508,0.00173500533280107,1.73500533280107E-06,0.656929075717926,-1.04127871990203,1.69820779561996,,,,0.0237997988038556,0.0241474075909747
517025.108314773,1.81099865300348,0.00183468287960688,1.83468287960688E-06,0.657941043376922,-1.04148876667022,1.69942981004715,,,,0.0251671176900807,0.0255147264771998
517025.22711469,1.92979856999591,0.00195502512203322,1.95502512203322E-06,0.658972144126892,-1.04169869422912,1.70067083835601,,,,0.026817902908549,0.0271655116956681
517025.346314596,2.04899847600609,0.00207577139065,2.07577139065E-06,0.659984111785888,-1.04202330112457,1.70200741291046,,,,0.028474230324417,0.0288218391115361
517025.473314502,2.1759983819793,0.00220441963036855,2.20441963036855E-06,0.661015152931213,-1.04227149486541,1.70328664779663,,,,0.0302389524056042,0.0305865611927233
517025.609314398,2.31199827801902,0.00234218466685877,2.34218466685877E-06,0.66202712059021,-1.04242420196533,1.70445132255554,,,,0.032128733427418,0.0324763422145371
517025.747314294,2.44999817397911,0.00248197445540957,2.48197445540957E-06,0.663058221340179,-1.04265332221984,1.70571154356002,,,,0.03404628882592,0.0343938976130391
517025.911314177,2.61399805697147,0.00264810100099775,2.64810100099775E-06,0.664089262485504,-1.04282510280609,1.70691436529159,,,,0.0363251166117661,0.0366727253988852
517026.069914062,2.77259794197744,0.00280875735180907,2.80875735180907E-06,0.665139436721801,-1.04307329654693,1.70821273326873,,,,0.0385289074322232,0.0388765162193423
517026.251513921,2.95419780100929,0.00299271268098884,2.99271268098884E-06,0.666208744049072,-1.04332149028778,1.70953023433685,,,,0.0410523001507386,0.0413999089378577
517026.434313782,3.13699766201898,0.00317788230178091,3.17788230178091E-06,0.667239785194397,-1.04362702369689,1.71086680889129,,,,0.0435923498186682,0.0439399586057873
517026.612713648,3.31539752800018,0.00335859547493192,3.35859547493192E-06,0.668328166007995,-1.04381787776947,1.71214604377746,,,,0.0460712685175846,0.0464188773047037
517026.848113478,3.55079735798063,0.0035970485592948,3.5970485592948E-06,0.669340133666992,-1.04416155815124,1.71350169181823,,,,0.0493422298943045,0.0496898386814236
517027.054313315,3.75699719501426,0.00380592362501886,3.80592362501886E-06,0.670352101325988,-1.04433333873748,1.71468544006347,,,,0.0522074571333177,0.0525550659204368
517027.269713157,3.97239703696687,0.00402411965625815,4.02411965625815E-06,0.671364068984985,-1.04467701911926,1.71604108810424,,,,0.0552005439815933,0.0555481527687124
517027.510912986,4.21359686600044,0.00426844844766457,4.26844844766457E-06,0.672433316707611,-1.0448487997055,1.71728211641311,,,,0.0585521049062355,0.0588997136933546
517027.768512787,4.47119666700019,0.00452939136709107,4.52939136709107E-06,0.67346441745758,-1.04519248008728,1.71865689754486,,,,0.062131568821551,0.0624791776086701
517028.04791258,4.75059646001319,0.00481241835447152,4.81241835447152E-06,0.674533665180206,-1.04547882080078,1.72001248598098,,,,0.0660139691971402,0.0663615779842593
517028.312512385,5.01519626501249,0.00508045279861821,5.08045279861821E-06,0.675545632839202,-1.0457843542099,1.7213299870491,,,,0.0696907105434597,0.0700383193305788
517028.591312175,5.29399605497019,0.00536287088406086,5.36287088406086E-06,0.676576733589172,-1.0458607673645,1.72243750095367,,,,0.0735647583547443,0.0739123671418634
517028.889711955,5.59239583497401,0.0056651429470645,5.6651429470645E-06,0.677588701248168,-1.04624259471893,1.7238312959671,,,,0.0777111515372359,0.078058760324355
517029.192511732,5.8951956119854,0.00597187395887904,5.97187395887904E-06,0.678638875484466,-1.04639530181884,1.72503417730331,,,,0.0819187099983407,0.0822663187854598
517029.529311476,6.23199535597814,0.00631304445254802,6.31304445254802E-06,0.679650843143463,-1.04673898220062,1.72638982534408,,,,0.0865986893353638,0.0869462981224829
517029.86911122,6.57179509999696,0.00665725209228197,6.65725209228197E-06,0.680662810802459,-1.04700624942779,1.72766906023025,,,,0.0913203304839776,0.0916679392710967
517030.191510987,6.89419486699626,0.00698383588699499,6.98383588699499E-06,0.681674778461456,-1.04713988304138,1.72881466150283,,,,0.0958002179286007,0.0961478267157198
517030.513910746,7.21659462602111,0.00731042089381482,7.31042089381482E-06,0.682744085788726,-1.04746437072753,1.73020845651626,,,,0.100280122000203,0.100627730787322
517030.91631045,7.6189943299978,0.00771804123351308,7.71804123351308E-06,0.683756053447723,-1.047731757164,1.73148781061172,,,,0.10587162185889,0.106219230646009
517031.271910173,7.97459405299742,0.00807825526502397,8.07825526502397E-06,0.68476802110672,-1.04797995090484,1.73274797201156,,,,0.110812829424197,0.111160438211316
517031.671309882,8.37399376201211,0.00848283669632011,8.48283669632011E-06,0.685799062252044,-1.04820895195007,1.73400801420211,,,,0.116362643296572,0.116710252083691
517032.05390959,8.75659346999601,0.00887040223285886,8.87040223285886E-06,0.686811089515686,-1.04834258556366,1.73515367507934,,,,0.121679042974744,0.122026651761863
517032.453109299,9.15579317900119,0.00927478325990835,9.27478325990835E-06,0.687823057174682,-1.04853355884552,1.7363566160202,,,,0.127226107817673,0.127573716604792
517032.855509003,9.55819288297789,0.00968240375569131,9.68240375569131E-06,0.688835024833679,-1.04883897304534,1.73767399787902,,,,0.132817609817439,0.133165218604558
517033.291908679,9.99459255900001,0.0101244660389158,1.01244660389158E-05,0.689866065979003,-1.04899179935455,1.73885786533355,,,,0.138881564319833,0.139229173106952
517033.712308356,10.4149922360084,0.0105503204589022,1.05503204589022E-05,0.690897166728973,-1.04916357994079,1.74006074666976,,,,0.144723188736656,0.145070797523775
517034.131708054,10.8343919339823,0.0109751609390576,1.09751609390576E-05,0.69190913438797,-1.04941177368164,1.74132090806961,,,,0.150550904513822,0.150898513300941
517034.572107726,11.2747916060034,0.0114212721274958,1.14212721274958E-05,0.692959308624267,-1.04958355426788,1.74254286289215,,,,0.156670399554126,0.157018008341245
517035.01550739,11.718191270018,0.0118704238985909,1.18704238985909E-05,0.693971276283264,-1.04985082149505,1.74382209777832,,,,0.1628316035472,0.163179212334319
517035.453507063,12.1561909429729,0.0123141079397598,1.23141079397598E-05,0.695021450519561,-1.049889087677,1.74491053819656,,,,0.16891780438628,0.169265413173399
517035.932306704,12.6349905839888,0.0127991212590667,1.27991212590667E-05,0.696052551269531,-1.04996538162231,1.74601793289184,,,,0.175570936338364,0.175918545125483
517036.352106401,13.0547902809922,0.013224366636806,1.3224366636806E-05,0.697064518928527,-1.0502518415451,1.74731636047363,,,,0.1814042062662,0.181751815053319
517036.811706051,13.5143899309915,0.0136899289411438,1.36899289411438E-05,0.698076486587524,-1.05050003528595,1.74857652187347,,,,0.187790520454647,0.188138129241766
517037.230505744,13.9331896239892,0.0141141618932882,1.41141618932882E-05,0.699088454246521,-1.05065274238586,1.74974119663238,,,,0.193609902514241,0.19395751130136
517037.673105409,14.3757892890135,0.014562504096296,1.4562504096296E-05,0.700100421905517,-1.05059540271759,1.7506958246231,,,,0.199760001320933,0.200107610108052
517038.113505078,14.8161889580078,0.015008618533492,1.5008618533492E-05,0.701131522655487,-1.05092000961303,1.75205153226852,,,,0.205879540925816,0.206227149712935
517038.532104771,15.2347886509961,0.0154326489270395,1.54326489270395E-05,0.702143490314483,-1.05111098289489,1.75325447320938,,,,0.211696144403834,0.212043753190953
517038.99250442,15.6951882999856,0.0158990190637244,1.58990190637244E-05,0.70315545797348,-1.05114912986755,1.75430458784103,,,,0.218093539968785,0.218441148755904
517039.392904127,16.0955880070105,0.0163046122560368,1.63046122560368E-05,0.704167425632476,-1.05126368999481,1.75543111562728,,,,0.223657232593097,0.224004841380216
517039.811103816,16.5137876960216,0.0167282393722004,1.67282393722004E-05,0.705179393291473,-1.05149281024932,1.7566722035408,,,,0.22946830414541,0.229815912932529
517040.211503512,16.9141873919871,0.0171338340759409,1.71338340759409E-05,0.706248700618743,-1.05153095722198,1.75777965784072,,,,0.235032017502619,0.235379626289738
517040.692503164,17.3951870439923,0.0176210748972362,1.76210748972362E-05,0.70726066827774,-1.0517600774765,1.75902074575424,,,,0.241715705037534,0.242063313824653
517041.129502838,17.8321867180057,0.0180637445945872,1.80637445945872E-05,0.708310842514038,-1.05198919773101,1.76030004024505,,,,0.247787991695298,0.248135600482417
517041.548702521,18.2513864010107,0.0184883856342898,1.84883856342898E-05,0.709361016750335,-1.05200827121734,1.76136928796768,,,,0.253612971663783,0.253960580450902
517041.949502227,18.6521861070069,0.0188943863067626,1.88943863067626E-05,0.710372984409332,-1.0521228313446,1.76249581575393,,,,0.259182253865056,0.259529862652175
517042.34950193,19.0521858099964,0.0192995759042104,1.92995759042104E-05,0.711423158645629,-1.0523327589035,1.76375591754913,,,,0.264740410208647,0.265088018995766
517042.752301627,19.4549855070072,0.0197076004353761,1.97076004353761E-05,0.712435126304626,-1.05237102508544,1.76480615139007,,,,0.270337454531908,0.270685063319027
517043.149301324,19.8519852039753,0.0201097488324112,2.01097488324112E-05,0.713466167449951,-1.05258095264434,1.76604712009429,,,,0.275853893448713,0.276201502235832
517043.511101065,20.2137849450228,0.0204762410754362,2.04762410754362E-05,0.71449726819992,-1.05244731903076,1.76694458723068,,,,0.28088122188527,0.281228830672389
517043.891300777,20.5939846569672,0.0208613720603783,2.08613720603783E-05,0.715509235858917,-1.05271458625793,1.76822382211685,,,,0.286164225793941,0.28651183458106
517044.269700491,20.9723843709799,0.0212446794135835,2.12446794135835E-05,0.716521203517913,-1.05279099941253,1.76931220293045,,,,0.2914222141781,0.291769822965219
517044.609300242,21.3119841219741,0.0215886840391953,2.15886840391953E-05,0.71753317117691,-1.05282914638519,1.7703623175621,,,,0.296141070496506,0.296488679283625
517044.969899974,21.6725838540006,0.0219539645143482,2.19539645143482E-05,0.718545198440551,-1.05311560630798,1.77166080474853,,,,0.301151776602856,0.301499385389975
517045.311899718,22.0145835980074,0.0223004012035661,2.23004012035661E-05,0.719557166099548,-1.05317282676696,1.77272999286651,,,,0.305903994561949,0.306251603349068
517045.652299463,22.3549833429861,0.0226452176534334,2.26452176534334E-05,0.720588207244873,-1.05317282676696,1.77376103401184,,,,0.310633987015547,0.310981595802666
517045.991099206,22.6937830859679,0.0229884139946566,2.29884139946566E-05,0.721600174903869,-1.05319190025329,1.77479207515716,,,,0.315341755756606,0.315689364543725
517046.329898959,23.0325828390196,0.0233316099294821,2.33316099294821E-05,0.722612202167511,-1.05334460735321,1.77595680952072,,,,0.320049518922937,0.320397127710056
517046.63069874,23.3333826200105,0.0236363128047519,2.36363128047519E-05,0.723681449890136,-1.05338287353515,1.77706432342529,,,,0.324229256580959,0.324576865368078
517046.969098484,23.6717823640211,0.023979105798165,2.3979105798165E-05,0.724712491035461,-1.05349743366241,1.77820992469787,,,,0.328931492430247,0.329279101217366
517047.290098251,23.9927821310121,0.0243042709198395,2.43042709198395E-05,0.725724518299102,-1.05365014076232,1.77937465906143,,,,0.333391919339362,0.333739528126481
517047.591498018,24.2941818980034,0.0246095817545784,2.46095817545784E-05,0.726736485958099,-1.05374562740325,1.78048211336135,,,,0.337579996633449,0.337927605420568
517047.8888978,24.591581679997,0.0249108421480258,2.49108421480258E-05,0.727748453617095,-1.05389833450317,1.78164678812027,,,,0.341712512318598,0.342060121105717
517048.188297576,24.8909814559738,0.0252141281801462,2.52141281801462E-05,0.728760421276092,-1.05386018753051,1.78262060880661,,,,0.345872814542472,0.346220423329591
517048.487897349,25.1905812289915,0.0255176158562766,2.55176158562766E-05,0.729772388935089,-1.0539174079895,1.78368979692459,,,,0.350035882802148,0.350383491589267
517048.769697139,25.4723810189753,0.0258030726814005,2.58030726814005E-05,0.730803489685058,-1.0539938211441,1.78479731082916,,,,0.353951614285329,0.354299223072448
517049.034496947,25.7371808270109,0.0260713085081179,2.60713085081179E-05,0.731834530830383,-1.05395555496215,1.78579008579254,,,,0.357631118081178,0.357978726868297
517049.311496738,26.014180617989,0.0263519015893141,2.63519015893141E-05,0.732865631580352,-1.05408918857574,1.78695482015609,,,,0.36148013154066,0.361827740327779
517049.586696527,26.2893804070191,0.026630672518293,2.6630672518293E-05,0.733877599239349,-1.0542801618576,1.78815776109695,,,,0.365304149770823,0.365651758557942
517049.83049635,26.5331802300061,0.0268776358885235,2.68776358885235E-05,0.734889566898345,-1.0542801618576,1.78916972875595,,,,0.368691850322682,0.369039459109801
517050.090696156,26.7933800360188,0.0271412101130617,2.71412101130617E-05,0.735920667648315,-1.05424201488494,1.79016268253326,,,,0.372307408958322,0.372655017745441
517050.348695969,27.0513798489701,0.0274025560234387,2.74025560234387E-05,0.736932635307312,-1.05441379547119,1.7913464307785,,,,0.375892400870215,0.376240009657334
517050.590495784,27.2931796640041,0.02764749242319,2.764749242319E-05,0.737982809543609,-1.0543565750122,1.79233938455581,,,,0.379252296614403,0.379599905401522
517050.828695608,27.5313794880058,0.0278887825321753,2.78887825321753E-05,0.739032983779907,-1.05460476875305,1.79363775253295,,,,0.38256217465261,0.382909783439729
517051.089095411,27.7917792910012,0.0281525603537029,2.81525603537029E-05,0.740102231502533,-1.05454742908477,1.79464966058731,,,,0.386180526113894,0.386528134901013
517051.308695249,28.0113791290205,0.0283750090098513,2.83750090098513E-05,0.741114199161529,-1.05458557605743,1.79569977521896,,,,0.389231948008934,0.389579556796053
517051.528295086,28.2309789659921,0.0285974590187602,2.85974590187602E-05,0.742126166820526,-1.05466198921203,1.79678815603256,,,,0.392283388460359,0.392630997247478
517051.751494922,28.4541788019706,0.0288235543304946,2.88235543304946E-05,0.743233621120452,-1.05458557605743,1.79781919717788,,,,0.39538483306577,0.395732441852889
517051.98889474,28.691578619997,0.0290640348301596,2.90640348301596E-05,0.744264721870422,-1.05470013618469,1.79896485805511,,,,0.398683605351984,0.399031214139103
517052.208094576,28.9107784560183,0.0292860789653857,2.92860789653857E-05,0.745276689529418,-1.05481469631195,1.80009138584137,,,,0.401729478263178,0.402077087050297
517052.376294456,29.0789783360087,0.0294564595591227,2.94564595591227E-05,0.746307730674743,-1.05477654933929,1.80108428001403,,,,0.404066660618967,0.404414269406086
517052.608294284,29.310978163965,0.0296914693845113,2.96914693845113E-05,0.74731969833374,-1.05485296249389,1.80217266082763,,,,0.407290389362295,0.407637998149414
517052.810094131,29.512778010976,0.0298958865543206,2.98958865543206E-05,0.748350799083709,-1.05485296249389,1.8032037615776,,,,0.410094465765715,0.410442074552834
517052.991093991,29.6937778709689,0.0300792354470358,3.00792354470358E-05,0.749381840229034,-1.05491018295288,1.80429202318191,,,,0.41260953973986,0.412957148526979
517053.171893863,29.8745777430013,0.0302623803018066,3.02623803018066E-05,0.750393867492675,-1.05491018295288,1.80530405044555,,,,0.415121814839597,0.415469423626716
517053.368293711,30.0709775909781,0.0304613267222378,3.04613267222378E-05,0.751424908638,-1.05502474308013,1.80644965171814,,,,0.417850846669929,0.418198455457048
517053.54889358,30.2515774599742,0.0306442691592375,3.06442691592375E-05,0.75245600938797,-1.05508196353912,1.80753797292709,,,,0.420360345119856,0.420707953906975
517053.713093455,30.4157773350016,0.0308105997676849,3.08105997676849E-05,0.753487050533294,-1.05506289005279,1.80854994058609,,,,0.422641972121878,0.422989580908997
517053.88869333,30.5913772099884,0.0309884768558475,3.09884768558475E-05,0.75455629825592,-1.05510115623474,1.80965745449066,,,,0.425081987048663,0.425429595835782
517054.049493206,30.7521770860185,0.0311513637424839,3.11513637424839E-05,0.755606472492218,-1.05504381656646,1.81065028905868,,,,0.427316375068366,0.427663983855485
517054.228693081,30.9313769610017,0.0313328882697953,3.13328882697953E-05,0.756637573242187,-1.05512022972106,1.81175780296325,,,,0.429806423453982,0.430154032241101
517054.374092966,31.0767768460209,0.0314801750471459,3.14801750471459E-05,0.757725894451141,-1.05519652366638,1.81292241811752,,,,0.431826818205019,0.432174426992138
517054.543692844,31.2463767239824,0.0316519754724635,3.16519754724635E-05,0.75875699520111,-1.05527293682098,1.81402993202209,,,,0.434183476988525,0.434531085775644
517054.708492713,31.4111765929847,0.031818912884487,3.1818912884487E-05,0.759845316410064,-1.05523478984832,1.81508010625839,,,,0.436473427770741,0.43682103655786
517054.868492593,31.5711764729931,0.031980987852229,3.1980987852229E-05,0.760876417160034,-1.05523478984832,1.81611120700836,,,,0.438696678357051,0.43904428714417
517055.008092502,31.7107763820095,0.032122399678164,3.2122399678164E-05,0.76198387145996,-1.05531108379364,1.8172949552536,,,,0.440636483925432,0.440984092712551
517055.151092384,31.8537762640044,0.0322672542162073,3.22672542162073E-05,0.763014912605285,-1.05523478984832,1.81824970245361,,,,0.442623514625614,0.442971123412733
517055.289892291,31.9925761710037,0.0324078542712529,3.24078542712529E-05,0.764026880264282,-1.05527293682098,1.81929981708526,,,,0.444552184790849,0.444899793577968
517055.410492197,32.1131760770222,0.0325300193751123,3.25300193751123E-05,0.765038907527923,-1.05519652366638,1.8202354311943,,,,0.446227974967247,0.446575583754366
517055.533492105,32.2361759850173,0.032654615518146,3.2654615518146E-05,0.76605087518692,-1.05534934997558,1.8214002251625,,,,0.44793711273177,0.448284721518889
517055.671092001,32.3737758810166,0.0327940006806453,3.27940006806453E-05,0.767062842845916,-1.05534934997558,1.8224121928215,,,,0.449849117704325,0.450196726491444
517055.790891917,32.4935757970088,0.0329153548119068,3.29153548119068E-05,0.768074810504913,-1.05529201030731,1.82336682081222,,,,0.451513783428077,0.451861392215196
517055.910491825,32.6131757050171,0.0330365068191024,3.30365068191024E-05,0.769086778163909,-1.05542564392089,1.8245124220848,,,,0.453175676530897,0.453523285318016
517056.031291732,32.7339756119764,0.0331588745842377,3.31588745842377E-05,0.77015608549118,-1.05536842346191,1.82552450895309,,,,0.454854246697362,0.455201855484481
517056.149291638,32.8519755179877,0.0332784050070047,3.32784050070047E-05,0.771168053150177,-1.05536842346191,1.82653647661209,,,,0.456493895843686,0.456841504630805
517056.251691569,32.954375448986,0.0333821343509223,3.33821343509223E-05,0.772218227386474,-1.05542564392089,1.82764387130737,,,,0.457916794937206,0.458264403724325
517056.370291477,33.0729753570049,0.0335022723181777,3.35022723181777E-05,0.773249268531799,-1.05538749694824,1.82863676548004,,,,0.459564778027129,0.459912386814248
517056.488291388,33.1909752680222,0.0336218034080796,3.36218034080796E-05,0.774261236190795,-1.05548298358917,1.82974421977996,,,,0.461204436324823,0.461552045111942
517056.590291314,33.2929751939955,0.0337251263915035,3.37251263915035E-05,0.775330543518066,-1.05536842346191,1.83069896697998,,,,0.462621761200322,0.462969369987441
517056.696091244,33.3987751239911,0.0338322999417251,3.38322999417251E-05,0.776380658149719,-1.05538749694824,1.83176815509796,,,,0.464091905922155,0.464439514709274
517056.790091173,33.4927750530187,0.0339275196598768,3.39275196598768E-05,0.777430832386016,-1.05544471740722,1.83287554979324,,,,0.465398074895429,0.465745683682548
517056.89189109,33.5945749700186,0.0340306405935287,3.40306405935287E-05,0.778442800045013,-1.05531108379364,1.83375388383865,,,,0.466812628169118,0.467160236956237
517056.989291014,33.691974893969,0.0341293043054607,3.41293043054607E-05,0.779473900794982,-1.05544471740722,1.8349186182022,,,,0.468166039855428,0.468513648642547
517057.07349096,33.7761748399935,0.0342145969889561,3.42145969889561E-05,0.780504941940307,-1.05548298358917,1.83598792552948,,,,0.469336035513801,0.46968364430092
517057.168490888,33.8711747680209,0.0343108305104308,3.43108305104308E-05,0.781516969203949,-1.05542564392089,1.83694261312484,,,,0.470656111254195,0.471003720041314
517057.251890824,33.9545747039956,0.0343953126733435,3.43953126733435E-05,0.782548010349273,-1.05540657043457,1.83795458078384,,,,0.471814988660405,0.472162597447524
517057.346090754,34.0487746340223,0.0344907346427043,3.44907346427043E-05,0.78355997800827,-1.05554020404815,1.83910018205642,,,,0.473123931998687,0.473471540785806
517057.428890684,34.1315745639731,0.0345746088296042,3.45746088296042E-05,0.784572005271911,-1.05544471740722,1.84001672267913,,,,0.474274469541896,0.474622078329015
517057.493090637,34.1957745170221,0.0346396422804461,3.46396422804461E-05,0.785583972930908,-1.05548298358917,1.84106695652008,,,,0.475166560774295,0.475514169561414
517057.573890587,34.2765744670178,0.0347214904330041,3.47214904330041E-05,0.786595940589904,-1.05542564392089,1.8420215845108,,,,0.476289306351222,0.476636915138341
517057.655290522,34.3579744019662,0.0348039474653667,3.48039474653667E-05,0.787607908248901,-1.05523478984832,1.84284269809722,,,,0.477420404188844,0.477768012975963
517057.728290474,34.4309743539779,0.0348778947591119,3.48778947591119E-05,0.788619875907897,-1.05546379089355,1.84408366680145,,,,0.478434770358188,0.478782379145307
517057.810090405,34.5127742849872,0.0349607560365729,3.49607560365729E-05,0.789708256721496,-1.05538749694824,1.84509575366973,,,,0.479571413396062,0.479919022183181
517057.875690359,34.5783742389758,0.035027207044363,3.5027207044363E-05,0.790720224380493,-1.05534934997558,1.84606957435607,,,,0.480482949854088,0.480830558641207
517057.951290303,34.6539741830202,0.0351037883766492,3.51037883766492E-05,0.791789472103118,-1.05548298358917,1.84727245569229,,,,0.481533448239358,0.481881057026477
517058.026490243,34.729174122971,0.0351799642489486,3.51799642489486E-05,0.792801439762115,-1.05548298358917,1.84828442335128,,,,0.48257838475924,0.482925993546359
517058.090090196,34.7927740759915,0.0352443898581928,3.52443898581928E-05,0.793851613998413,-1.05540657043457,1.84925818443298,,,,0.483462137972466,0.483809746759585
517058.15209015,34.8547740299837,0.0353071943242549,3.53071943242549E-05,0.794882714748382,-1.05538749694824,1.85027021169662,,,,0.48432365328196,0.484671262069079
517058.225690103,34.9283739830134,0.0353817490889496,3.53817490889496E-05,0.79593288898468,-1.05548298358917,1.85141587257385,,,,0.48534635238614,0.485693961173259
517058.288290057,34.9909739369759,0.0354451613155338,3.54451613155338E-05,0.796944856643676,-1.05542564392089,1.85237050056457,,,,0.486216204602658,0.486563813389777
517058.346490009,35.0491738889832,0.0355041168928278,3.55041168928278E-05,0.798014104366302,-1.05538749694824,1.85340160131454,,,,0.487024923084058,0.487372531871177
517058.408089963,35.1107738430146,0.0355665160264041,3.55665160264041E-05,0.799045145511627,-1.05534934997558,1.85439449548721,,,,0.487880878277148,0.488228487064267
517058.465689916,35.1683737959829,0.0356248629247214,3.56248629247214E-05,0.800133526325225,-1.05540657043457,1.85554009675979,,,,0.488681247252694,0.489028856039813
517058.467289916,35.1699737960007,0.0356264835770792,3.56264835770792E-05,0.799980759620666,-1.05536842346191,1.85534918308258,,,,0.488703478423583,0.489051087210702
517058.467489916,35.1701737960102,0.0356266861603789,3.56266861603789E-05,0.800133526325225,-1.05540657043457,1.85554009675979,,,,0.488706257344018,0.489053866131137
