time/s,reltime/s,C/mA.h,C/A.h,Ewe/V,Ece/V,Ewe-Ece/V
517058.468089916,0.0,0.0,0.0,0.61501008272171,-1.02880835533142,1.64381843805313
517058.468289916,0.00020000000949949026,2.02022777663336e-07,2.02022777663336e-10,0.521981954574585,-1.01629912853241,1.53828108310699
517058.468489916,0.0004000000189989805,4.04222157266404e-07,4.0422215726640396e-10,0.486668497323989,-1.01099920272827,1.49766770005226
517058.468689916,0.0006000000284984708,6.06531023979187e-07,6.06531023979187e-10,0.471087843179702,-1.00813543796539,1.47922328114509
517058.468889916,0.000800000037997961,8.08878739674886e-07,8.088787396748859e-10,0.462533771991729,-1.00687539577484,1.46940916776657
517058.469089916,0.0009999999892897904,1.01121939553154e-06,1.0112193955315399e-09,0.457187473773956,-1.00601637363433,1.46320384740829
517058.469289916,0.0011999999987892807,1.21358830398983e-06,1.21358830398983e-09,0.453177750110626,-1.00546264648437,1.458640396595
517058.469489916,0.001400000008288771,1.41596074899037e-06,1.41596074899037e-09,0.450160890817642,-1.00488996505737,1.45505085587501
517058.469689916,0.0016000000177882612,1.61836143334706e-06,1.61836143334706e-09,0.447907835245132,-1.00441265106201,1.45232048630714
517058.469889916,0.0018000000272877514,1.82075153456793e-06,1.8207515345679301e-09,0.445922046899795,-1.00395441055297,1.44987645745277
517058.470089916,0.0020000000367872417,2.02313102616204e-06,2.02313102616204e-09,0.444222688674926,-1.00372529029846,1.44794797897338
517058.470289916,0.002199999988079071,2.22552466392517e-06,2.2255246639251698e-09,0.442752450704574,-1.00345802307128,1.44621047377586
517058.470489916,0.0023999999975785613,2.42789004908667e-06,2.42789004908667e-09,0.441396802663803,-1.00326716899871,1.44466397166252
517058.470689916,0.0026000000070780516,2.6302836868498e-06,2.6302836868498003e-09,0.440289348363876,-1.0030380487442,1.44332739710807
517058.470889916,0.002800000016577542,2.8327197101381e-06,2.8327197101381e-09,0.439220070838928,-1.00275158882141,1.44197165966033
517058.471289916,0.0032000000355765224,3.23753170172373e-06,3.23753170172373e-09,0.437272489070892,-1.00250339508056,1.43977588415145
517058.471689916,0.003599999996367842,3.64226953188578e-06,3.64226953188578e-09,0.435630410909652,-1.00223612785339,1.43786653876304
517058.472089915,0.003999999025836587,4.04709565639495e-06,4.04709565639495e-09,0.434026539325714,-1.00204527378082,1.43607181310653
517058.472489915,0.0043999989866279066,4.45186173915863e-06,4.45186173915863e-09,0.43268996477127,-1.00172066688537,1.43441063165664
517058.472889915,0.004799999005626887,4.85663489500681e-06,4.85663489500681e-09,0.431315183639526,-1.00149154663085,1.43280673027038
517058.473289915,0.005199999024625868,5.26143983999888e-06,5.26143983999888e-09,0.430265039205551,-1.00122427940368,1.43148931860923
517058.473889916,0.005799999984446913,5.86868076854281e-06,5.86868076854281e-09,0.428622961044311,-1.00097608566284,1.42959904670715
517058.474489916,0.006400000012945384,6.47590760389963e-06,6.47590760389963e-09,0.42709544301033,-1.00088059902191,1.42797604203224
517058.475089917,0.00700000103097409,7.08307084772321e-06,7.08307084772321e-09,0.425854325294494,-1.00067067146301,1.4265249967575
517058.475689917,0.0076000010012649,7.69024819797939e-06,7.69024819797939e-09,0.42459413409233,-1.00046062469482,1.42505475878715
517058.476289917,0.00820000102976337,8.29747854338751e-06,8.297478543387511e-09,0.423333942890167,-1.00036513805389,1.42369908094406
517058.477089917,0.009000001009553671,9.10700008604261e-06,9.107000086042611e-09,0.422169208526611,-1.00028884410858,1.42245805263519
517058.477889915,0.0097999990102835,9.91664881176418e-06,9.91664881176418e-09,0.420928090810775,-1.0000215768814,1.42094966769218
517058.478689914,0.010599998000543565,1.07262445025973e-05,1.07262445025973e-08,0.41978245973587,-1.00000238418579,1.41978484392166
517058.479489913,0.01139999699080363,1.15359285142686e-05,1.1535928514268601e-08,0.418579548597335,-0.999792397022247,1.41837194561958
517058.480489911,0.012399995001032948,1.25480096737543e-05,1.25480096737543e-08,0.417491197586059,-0.99956327676773,1.41705447435379
517058.481489909,0.013399993011262268,1.35600272946887e-05,1.3560027294688699e-08,0.416364639997482,-0.999467849731445,1.41583248972892
517058.482489908,0.014399992011021823,1.45720413790808e-05,1.4572041379080799e-08,0.415199935436248,-0.999296009540557,1.4144959449768
517058.483689906,0.015599990030750632,1.57864985466003e-05,1.57864985466003e-08,0.414035201072692,-0.99912416934967,1.41315937042236
517058.485089903,0.016999987012241036,1.72033422920439e-05,1.72033422920439e-08,0.412946850061416,-0.999009609222412,1.41195645928382
517058.486489901,0.018399985041469336,1.86202107535468e-05,1.8620210753546802e-08,0.411877572536468,-0.998990535736084,1.41086810827255
517058.487889898,0.01979998202295974,2.00371039443545e-05,2.0037103944354498e-08,0.410789221525192,-0.998723268508911,1.4095124900341
517058.489689895,0.021599979023449123,2.18588514857822e-05,2.18588514857822e-08,0.409758150577545,-0.998398721218109,1.40815687179565
517058.491489892,0.023399976023938507,2.36806238094965e-05,2.36806238094965e-08,0.408669799566268,-0.998265027999877,1.40693482756614
517058.493489892,0.025399976002518088,2.57046413818995e-05,2.5704641381899497e-08,0.407657831907272,-0.998207747936248,1.40586557984352
517058.495489893,0.027399977028835565,2.77286483579211e-05,2.77286483579211e-08,0.406550377607345,-0.998016834259033,1.40456721186637
517058.497689893,0.029599977016914636,2.99550136460198e-05,2.99550136460198e-08,0.405423820018768,-0.997825920581817,1.40324974060058
517058.499889893,0.03179997700499371,3.21815626223882e-05,3.21815626223882e-08,0.404373675584793,-0.997902333736419,1.40227600932121
517058.502889893,0.03479997703107074,3.52176012595494e-05,3.52176012595494e-08,0.403247117996215,-0.997501373291015,1.40074849128723
517058.506089893,0.0379999770084396,3.8456044210328e-05,3.8456044210328e-08,0.40212059020996,-0.997520446777343,1.3996410369873
517058.509889891,0.04179997503524646,4.23016892936494e-05,4.23016892936494e-08,0.401108592748642,-0.997291386127471,1.39839997887611
517058.513089885,0.04499996901722625,4.55401640468173e-05,4.55401640468173e-08,0.400077521800994,-0.997138619422912,1.3972161412239
517058.517089879,0.048999963037204,4.95883192618688e-05,4.95883192618688e-08,0.398989170789718,-0.996966838836669,1.39595600962638
517058.520889872,0.05279995599994436,5.34339784383773e-05,5.3433978438377296e-08,0.397938996553421,-0.99690955877304,1.39484855532646
517058.52568987,0.05759995401604101,5.82917293839984e-05,5.8291729383998396e-08,0.396907925605773,-0.996794998645782,1.39370292425155
517058.53128987,0.06319995399098843,6.39591573211881e-05,6.39591573211881e-08,0.395857781171798,-0.996527731418609,1.3923855125904
517058.536489869,0.0683999530156143,6.92216213676664e-05,6.92216213676664e-08,0.39478850364685,-0.996413171291351,1.3912016749382
517058.541889866,0.07379995001247153,7.46866097450256e-05,7.46866097450256e-08,0.393776535987854,-0.996394038200378,1.39017057418823
517058.548289855,0.080199939024169,8.11636864211824e-05,8.116368642118239e-08,0.392726361751556,-0.996126770973205,1.38885313272476
517058.555689846,0.08759993000421673,8.86526465283499e-05,8.865264652834991e-08,0.391580730676651,-0.99593585729599,1.38751658797264
517058.562489847,0.09439993102569133,9.55345669454998e-05,9.553456694549979e-08,0.390568763017654,-0.99587857723236,1.38644734025001
517058.571889845,0.10379992902744561,0.000105047466887368,1.05047466887368e-07,0.389499485492706,-0.99553495645523,1.38503444194793
517058.579889832,0.11179991601966321,0.000113143554859691,1.13143554859691e-07,0.388487517833709,-0.995515823364257,1.38400334119796
517058.589089823,0.1209999070269987,0.000122454131801923,1.22454131801923e-07,0.387475550174713,-0.995363116264343,1.38283866643905
517058.599289823,0.13119990698760375,0.000132776274230745,1.32776274230745e-07,0.386406272649765,-0.995248556137085,1.38165482878685
517058.611289808,0.1431998920161277,0.000144920944677458,1.44920944677458e-07,0.385375201702117,-0.994943082332611,1.38031828403472
517058.6206898,0.15259988402249292,0.000154433915191226,1.54433915191226e-07,0.384363234043121,-0.99500036239624,1.37936359643936
517058.634289799,0.16619988303864375,0.000168197738369305,1.68197738369305e-07,0.383351236581802,-0.994675815105438,1.37802705168724
517058.646889777,0.17879986099433154,0.000180949112998114,1.80949112998114e-07,0.382320165634155,-0.994637608528137,1.37695777416229
517058.660689776,0.19259986001998186,0.000194915170868237,1.94915170868237e-07,0.38127002120018,-0.994446694850921,1.3757167160511
517058.676689757,0.20859984098933637,0.000211107664518886,2.11107664518886e-07,0.380258023738861,-0.994255781173706,1.37451380491256
517058.694289754,0.22619983804179356,0.000228919628871811,2.28919628871811e-07,0.379246056079864,-0.994026720523834,1.37327277660369
517058.711489729,0.24339981301454827,0.0002463267775774,2.463267775774e-07,0.378176808357238,-0.993950307369232,1.37212711572647
517058.730289725,0.26219980901805684,0.00026535303653611,2.6535303653611e-07,0.377164810895919,-0.993683040142059,1.37084785103797
517058.752089707,0.28399979101959616,0.0002874154047966,2.874154047966e-07,0.376152843236923,-0.993587613105773,1.36974045634269
517058.771689685,0.3035997690167278,0.000307251308891508,3.07251308891508e-07,0.375140845775604,-0.993492126464843,1.36863297224044
517058.794289676,0.32619976002024487,0.000330123294101821,3.30123294101821e-07,0.374128878116607,-0.993243932723999,1.3673728108406
517058.816689659,0.3485997430398129,0.00035279251841704,3.5279251841703995e-07,0.37309780716896,-0.993148446083068,1.36624625325202
517058.841889636,0.3737997200223617,0.000378295956399705,3.78295956399705e-07,0.371971279382705,-0.993110299110412,1.36508157849311
517058.876489614,0.4083996980334632,0.000413312499086062,4.1331249908606204e-07,0.370959281921386,-0.992747545242309,1.36370682716369
517058.902489591,0.43439967499580234,0.000439624858366118,4.39624858366118e-07,0.369890034198761,-0.992823898792266,1.36271393299102
517058.936089567,0.46799965103855357,0.000473629510641098,4.73629510641098e-07,0.368858963251113,-0.992480278015136,1.36133924126625
517058.967689543,0.4995996269863099,0.000505610254989729,5.05610254989729e-07,0.367827892303466,-0.992384791374206,1.36021268367767
517059.00268952,0.5345996040268801,0.000541031782825787,5.41031782825787e-07,0.366777718067169,-0.99234664440155,1.35912436246871
517059.042089493,0.5739995770272799,0.000580905882226096,5.80905882226096e-07,0.365746647119522,-0.992155730724334,1.35790237784385
517059.083089454,0.6149995379964821,0.000622399565087424,6.22399565087424e-07,0.364715576171875,-0.991945683956146,1.35666126012802
517059.132289428,0.6641995119862258,0.000672192047476768,6.72192047476768e-07,0.363703608512878,-0.991468429565429,1.3551720380783
517059.175889385,0.7077994690043852,0.00071631689025296,7.1631689025296e-07,0.362672537565231,-0.991468429565429,1.35414096713066
517059.221489357,0.7533994410187006,0.000762466322620709,7.624663226207089e-07,0.361660540103912,-0.991353869438171,1.35301440954208
517059.278089311,0.8099993949872442,0.000819747803899976,8.19747803899976e-07,0.360648572444915,-0.991143822669982,1.35179239511489
517059.336689263,0.8685993470135145,0.000879053207596142,8.79053207596142e-07,0.359636604785919,-0.990857481956481,1.3504940867424
517059.39628922,0.9281993040349334,0.00093937030061086,9.3937030061086e-07,0.3586246073246,-0.990628361701965,1.34925296902656
517059.458489174,0.9903992580366321,0.00100231934781869,1.00231934781869e-06,0.357612639665603,-0.990552008152008,1.34816464781761
517059.520289128,1.0521992120193318,0.00106486296857727,1.06486296857727e-06,0.356562465429306,-0.990456521511077,1.34701898694038
517059.599289078,1.1311991619877517,0.00114481347276104,1.1448134727610398e-06,0.355531394481658,-0.990284740924835,1.34581613540649
517059.664489032,1.1963991160155274,0.00121079836791091,1.21079836791091e-06,0.354481220245361,-0.990131974220275,1.34461319446563
517059.757688963,1.2895990470424294,0.0013051195230484,1.3051195230483999e-06,0.353469252586364,-0.989711940288543,1.3431811928749
517059.83648889,1.3683989740093239,0.00138486813509464,1.3848681350946398e-06,0.352457284927368,-0.989559233188629,1.34201651811599
517059.922288833,1.4541989170247689,0.00147170028801759,1.4717002880175901e-06,0.351445287466049,-0.98944467306137,1.34088996052742
517060.019288757,1.5511988410144113,0.00156986774162451,1.56986774162451e-06,0.350433319807052,-0.989139199256897,1.33957251906395
517060.121888683,1.6537987670162693,0.00167370320592986,1.6737032059298601e-06,0.349402248859405,-0.989043772220611,1.33844602108001
517060.237688595,1.7695986790349707,0.00179089697876241,1.79089697876241e-06,0.348390281200408,-0.988852858543396,1.3372431397438
517060.362088503,1.893998587038368,0.00191679348317782,1.91679348317782e-06,0.347359180450439,-0.98856645822525,1.33592563867569
517060.48108842,2.012998504040297,0.00203722649735874,2.03722649735874e-06,0.346347212791442,-0.988375544548034,1.33472275733947
517060.60448833,2.136398414033465,0.00216211187806394,2.16211187806394e-06,0.345297038555145,-0.98807007074356,1.3333671092987
517060.740288218,2.272198302031029,0.0022995468154086,2.2995468154086e-06,0.344285070896148,-0.987840950489044,1.33212602138519
517060.886288119,2.418198203027714,0.00244730491534868,2.4473049153486803e-06,0.343273103237152,-0.987611889839172,1.33088499307632
517061.042888002,2.574798086017836,0.00260579036556349,2.6057903655634897e-06,0.342242032289505,-0.987401843070983,1.32964387536048
517061.204687876,2.7365979599999264,0.0027695388343864,2.7695388343864e-06,0.341210961341857,-0.987115502357482,1.32832646369934
517061.38428775,2.9161978340125643,0.00295130139313803,2.95130139313803e-06,0.340198963880538,-0.986962735652923,1.32716169953346
517061.562087611,3.093997695017606,0.00313124229673544,3.1312422967354396e-06,0.339186996221542,-0.986733675003051,1.32592067122459
517061.781087448,3.312997532018926,0.00335287853813171,3.35287853813171e-06,0.338155925273895,-0.98635184764862,1.32450777292251
517061.965287309,3.497197393036913,0.00353929746764236,3.53929746764236e-06,0.337105751037597,-0.986218214035034,1.32332396507263
517062.202887134,3.734797217999585,0.00377975849633746,3.77975849633746e-06,0.3360555768013,-0.98591274023056,1.32196831703186
517062.423086969,3.9549970530206338,0.00400260927303632,4.00260927303632e-06,0.335043609142303,-0.985702693462371,1.32074630260467
517062.666486794,4.19839687802596,0.00424894121800528,4.24894121800528e-06,0.333993434906005,-0.985569059848785,1.31956249475479
517062.882686635,4.414596719027031,0.00446774488066302,4.46774488066302e-06,0.332981467247009,-0.985206305980682,1.31818777322769
517063.179886399,4.711796483024955,0.00476852577850553,4.76852577850553e-06,0.331969499588012,-0.984939038753509,1.31690853834152
517063.426486218,4.958396302012261,0.00501809609513812,5.01809609513812e-06,0.330957502126693,-0.984709918498992,1.31566742062568
517063.723286004,5.255196087993681,0.00531847008298502,5.31847008298502e-06,0.329945534467697,-0.984480857849121,1.31442639231681
517064.002885795,5.5347958790371194,0.00560143570604589,5.6014357060458905e-06,0.32891446352005,-0.984309017658233,1.31322348117828
517064.304485561,5.836395644990262,0.00590666608761416,5.906666087614161e-06,0.327902495861053,-0.984079897403717,1.31198239326477
517064.62508533,6.156995413999539,0.00623112689916292,6.231126899162921e-06,0.326890498399734,-0.983659923076629,1.31055042147636
517064.925885101,6.457795185036957,0.00653554927131864,6.53554927131864e-06,0.325783044099807,-0.983468949794769,1.30925199389457
517065.302484819,6.834394903038628,0.00691668690538406,6.9166869053840604e-06,0.324732899665832,-0.983182609081268,1.3079155087471
517065.66548456,7.1973946440266445,0.00728406076902813,7.2840607690281305e-06,0.323701828718185,-0.983048975467681,1.30675080418586
517066.006284305,7.538194389024284,0.00762896654827064,7.62896654827064e-06,0.322670757770538,-0.982686221599578,1.30535697937011
517066.386284021,7.918194105033763,0.00801354003087679,8.01354003087679e-06,0.321658760309219,-0.982533454895019,1.30419221520423
517066.732083762,8.26399384601973,0.00836350141954421,8.36350141954421e-06,0.320627689361572,-0.982189834117889,1.30281752347946
517067.127083467,8.658993551041931,0.00876325796732637,8.76325796732637e-06,0.319615721702575,-0.981979846954345,1.30159556865692
517067.506883188,9.038793271989562,0.00914763013030422,9.147630130304219e-06,0.318565547466278,-0.98163616657257,1.30020171403884
517067.8882829,9.420192983991,0.00953362508727444,9.53362508727444e-06,0.317553579807281,-0.981598019599914,1.29915159940719
517068.285282604,9.817192688002251,0.00993541125467088,9.935411254670879e-06,0.316541582345962,-0.981216132640838,1.2977577149868
517068.66868232,10.200592403998598,0.0103234320626258,1.03234320626258e-05,0.315491437911987,-0.980967938899993,1.29645937681198
517069.065482022,10.597392106021289,0.0107250109486315,1.07250109486315e-05,0.31446036696434,-0.980796158313751,1.29525652527809
517069.430681743,10.962591827032156,0.011094608930389,1.1094608930389001e-05,0.313448369503021,-0.980624318122863,1.29407268762588
517069.867681417,11.399591500987299,0.0115368737996949,1.15368737996949e-05,0.312436401844024,-0.980395197868347,1.29283159971237
517070.249881139,11.781791223038454,0.0119236774520476,1.1923677452047599e-05,0.311424434185028,-0.980166137218475,1.2915905714035
517070.626280859,12.158190943009686,0.0123046102903948,1.23046102903948e-05,0.31037425994873,-0.979879736900329,1.29025399684906
517071.04948054,12.581390623992775,0.012732906293657,1.2732906293657e-05,0.309362292289733,-0.979555189609527,1.28891748189926
517071.46648023,12.998390313994605,0.0131549289637274,1.3154928963727399e-05,0.308293014764785,-0.979345142841339,1.28763815760612
517071.874079928,13.40599001199007,0.0135674365859694,1.35674365859694e-05,0.307204663753509,-0.979192435741424,1.28639709949493
517072.286879625,13.818789709010161,0.0139852092822922,1.3985209282292201e-05,0.306192696094512,-0.97898244857788,1.28517514467239
517072.670279337,14.20218942099018,0.014373226156142,1.4373226156142e-05,0.305161625146865,-0.978791534900665,1.28395316004753
517073.08847902,14.62038910400588,0.0147964608848624,1.47964608848624e-05,0.304149627685546,-0.978638768196106,1.28278839588165
517073.446078764,14.97798884799704,0.0151583673828972,1.51583673828972e-05,0.30306127667427,-0.978390574455261,1.28145185112953
517073.84627846,15.37818854401121,0.0155633886446158,1.5563388644615798e-05,0.302049309015274,-0.978218734264373,1.28026804327964
517074.204478191,15.73638827499235,0.0159259042654699,1.59259042654699e-05,0.301037311553955,-0.978027820587158,1.27906513214111
517074.589477903,16.121387986990158,0.0163155423611137,1.63155423611137e-05,0.300025343894958,-0.978027820587158,1.27805316448211
517074.930877645,16.462787728989497,0.0166610519199238,1.66610519199238e-05,0.298994272947311,-0.977722346782684,1.27671661972999
517075.293477384,16.82538746803766,0.0170280178631014,1.70280178631014e-05,0.297982305288314,-0.9776651263237,1.27564743161201
517075.672477098,17.204387182020582,0.0174115825037558,1.7411582503755798e-05,0.296913027763366,-0.977493286132812,1.27440631389617
517076.053076809,17.584986892994493,0.017796766773449,1.7796766773449002e-05,0.295881956815719,-0.977283239364624,1.27316519618034
517076.410876551,17.94278663501609,0.0181588761874437,1.81588761874437e-05,0.294850885868072,-0.977226018905639,1.27207690477371
517076.750076296,18.281986379995942,0.0185021608253055,1.85021608253055e-05,0.293838918209075,-0.977015972137451,1.27085489034652
517077.087076039,18.618986123008654,0.0188432188714875,1.88432188714875e-05,0.292826950550079,-0.976863265037536,1.26969021558761
517077.425075789,18.956985872995574,0.0191852864667044,1.91852864667044e-05,0.291795849800109,-0.97672963142395,1.26852548122406
517077.72967557,19.26158565399237,0.0194935546892748,1.94935546892748e-05,0.290764778852462,-0.976748704910278,1.26751348376274
517078.051875321,19.583785405033268,0.0198196354551977,1.98196354551977e-05,0.289752811193466,-0.976519584655761,1.26627239584922
517078.368075084,19.89998516801279,0.0201396406358612,2.01396406358612e-05,0.288721740245819,-0.976405024528503,1.26512676477432
517078.670874865,20.202784949040506,0.0204460864145093,2.04460864145093e-05,0.287709772586822,-0.976290524005889,1.26400029659271
517078.989074623,20.52098470699275,0.0207681183254851,2.07681183254851e-05,0.286697775125503,-0.976214110851287,1.26291188597679
517079.270674413,20.802584497025236,0.021053108260009,2.1053108260009e-05,0.285666704177856,-0.976156830787658,1.26182353496551
517079.5676742,21.099584284005687,0.0213536828681363,2.13536828681363e-05,0.284616559743881,-0.976004123687744,1.26062068343162
517079.872273968,21.404184052022174,0.0216619507511324,2.16619507511324e-05,0.283585488796234,-0.975832283496856,1.25941777229309
517080.154473758,21.686383842024952,0.0219475488483773,2.19475488483773e-05,0.282554388046264,-0.975755929946899,1.25831031799316
517080.432473548,21.964383632002864,0.0222288953337139,2.2228895333713898e-05,0.281485140323638,-0.975622296333313,1.25710743665695
517080.711873338,22.243783421989065,0.02251166117088,2.251166117088e-05,0.280473172664642,-0.975622296333313,1.25609546899795
517080.989273132,22.521183216013014,0.022792401934266,2.2792401934266002e-05,0.279442101716995,-0.975393176078796,1.25483527779579
517081.251072943,22.782983026991133,0.0230573550750944,2.30573550750944e-05,0.278391927480697,-0.975316822528839,1.25370875000953
517081.510872753,23.04278283700114,0.0233202835129764,2.33202835129764e-05,0.27736085653305,-0.975316822528839,1.25267767906189
517081.788672548,23.32058263203362,0.0236014278904861,2.3601427890486098e-05,0.276234298944473,-0.975183188915252,1.25141748785972
517082.070672338,23.6025824220269,0.0238868240740431,2.38868240740431e-05,0.275165051221847,-0.975049555301666,1.25021460652351
517082.304672149,23.836582233023364,0.0241236411835352,2.41236411835352e-05,0.274153083562851,-0.974877715110778,1.24903079867363
517082.532871988,24.064782072033267,0.0243545893294811,2.43545893294811e-05,0.273083806037902,-0.974992275238037,1.24807608127594
517082.807671779,24.33958186302334,0.0246326989144616,2.46326989144616e-05,0.272071838378906,-0.974801361560821,1.24687319993972
517083.011071635,24.542981719016097,0.0248385492047866,2.48385492047866e-05,0.271021664142608,-0.974744081497192,1.2457657456398
517083.252871452,24.784781536029186,0.0250832604543368,2.50832604543368e-05,0.269971489906311,-0.974705874919891,1.2446773648262
517083.471471289,25.003381373011507,0.0253044927490419,2.53044927490419e-05,0.268959522247314,-0.974610447883606,1.24356997013092
517083.690071126,25.221981209993828,0.0255257252344687,2.55257252344687e-05,0.267947554588317,-0.974534034729003,1.24248158931732
517083.891670974,25.423581057984848,0.0257297521482176,2.57297521482176e-05,0.26689738035202,-0.974495887756347,1.24139326810836
517084.107470816,25.639380900014658,0.0259481484489705,2.59481484489705e-05,0.265885412693023,-0.97432404756546,1.24020946025848
517084.311070661,25.842980745015666,0.0261542007161113,2.61542007161113e-05,0.264816135168075,-0.974381327629089,1.23919746279716
517084.532070498,26.063980581995565,0.0263778626066711,2.6377862606671102e-05,0.263804167509079,-0.97432404756546,1.23812821507453
517084.730670353,26.262580437003635,0.0265788559694025,2.65788559694025e-05,0.262792199850082,-0.974190413951873,1.23698261380195
517084.891870228,26.423780312004965,0.0267419966640207,2.67419966640207e-05,0.261780202388763,-0.974209487438201,1.23598968982696
517085.090670079,26.622580163006205,0.0269431906253894,2.6943190625389398e-05,0.260749131441116,-0.974114060401916,1.23486319184303
517085.270669942,26.802580026036594,0.027125358380768,2.7125358380768e-05,0.259718060493469,-0.974094927310943,1.23381298780441
517085.452669812,26.984579896030482,0.0273095499877664,2.7309549987766398e-05,0.258686989545822,-0.974018573760986,1.2327055633068
517085.628869682,27.160779766039923,0.0274878711479769,2.74878711479769e-05,0.257675021886825,-0.973961293697357,1.23163631558418
517085.793269561,27.32517964503495,0.027654250755416,2.7654250755415997e-05,0.256624847650528,-0.973846733570098,1.23047158122062
517085.988669408,27.520579492032994,0.0278520047914981,2.78520047914981e-05,0.255612879991531,-0.97382766008377,1.2294405400753
517086.146869288,27.678779372014105,0.0280121102283001,2.8012110228300102e-05,0.254581809043884,-0.973674952983856,1.22825676202774
517086.309669171,27.841579255007673,0.0281768717430432,2.81768717430432e-05,0.253569811582565,-0.973674952983856,1.22724476456642
517086.469069054,28.000979138014372,0.0283381926013098,2.8338192601309798e-05,0.252557843923568,-0.973617672920227,1.22617551684379
517086.614668941,28.14657902502222,0.0284855474754042,2.84855474754042e-05,0.251488596200943,-0.973503112792968,1.22499170899391
517086.789468823,28.32137890701415,0.0286624550204674,2.8662455020467398e-05,0.250419318675994,-0.973541319370269,1.22396063804626
517086.947068704,28.4789787880145,0.0288219546678198,2.88219546678198e-05,0.249407336115837,-0.973503112792968,1.2229104489088
517087.092068589,28.62397867301479,0.028968701852613,2.8968701852613e-05,0.2483571767807,-0.973522186279296,1.22187936305999
517087.232268488,28.76417857198976,0.0291105903150505,2.9110590315050498e-05,0.247345194220542,-0.973407626152038,1.22075282037258
517087.37246838,28.904378464038018,0.0292524798226488,2.92524798226488e-05,0.246256843209266,-0.973426759243011,1.21968360245227
517087.51226828,29.044178364041727,0.0293939630845652,2.93939630845652e-05,0.245187580585479,-0.973407626152038,1.21859520673751
517087.649268169,29.18117825302761,0.0295326132702827,2.9532613270282702e-05,0.244175598025322,-0.973293125629425,1.21746872365474
517087.787868077,29.31977816100698,0.0296728825588093,2.9672882558809298e-05,0.243144527077674,-0.973159432411193,1.21630395948886
517087.912667984,29.444578068039846,0.0297991864604685,2.97991864604685e-05,0.242113456130027,-0.973178565502166,1.21529202163219
517088.03446789,29.566377973998897,0.0299224530064794,2.9922453006479397e-05,0.241063296794891,-0.973216712474823,1.21428000926971
517088.169867789,29.701777873036917,0.0300594823695818,3.00594823695818e-05,0.240032210946083,-0.973216712474823,1.2132489234209
517088.289867704,29.821777787990868,0.0301809275353484,3.0180927535348402e-05,0.238962963223457,-0.973064005374908,1.21202696859836
517088.394067617,29.925977701030206,0.0302863833070728,3.02863833070728e-05,0.237950980663299,-0.973064005374908,1.2110149860382
517088.521867519,30.053777603025082,0.030415722244713,3.0415722244713e-05,0.236900806427002,-0.972873091697692,1.20977389812469
517088.629667447,30.161577531020157,0.0305248205684555,3.05248205684555e-05,0.235850647091865,-0.973064005374908,1.20891465246677
517088.748867355,30.280777439009398,0.0306454569755925,3.06454569755925e-05,0.234819576144218,-0.973121285438537,1.20794086158275
517088.851867286,30.383777370036114,0.0307496970824135,3.07496970824135e-05,0.23380759358406,-0.972873091697692,1.20668068528175
517088.951467206,30.483377290016506,0.0308504966986311,3.0850496698631096e-05,0.232795625925064,-0.97304493188858,1.20584055781364
517089.05486712,30.586777204007376,0.0309551421228912,3.09551421228912e-05,0.231707260012626,-0.972892165184021,1.20459942519664
517089.171467041,30.703377125028055,0.0310731463284095,3.10731463284095e-05,0.23061890900135,-0.972815811634063,1.20343472063541
517089.27186696,30.803777043998707,0.0311747559891276,3.11747559891276e-05,0.229568749666214,-0.972739458084106,1.20230820775032
517089.369866889,30.901776973041706,0.0312739358101288,3.12739358101288e-05,0.228537678718566,-0.97285395860672,1.20139163732528
517089.467466819,30.999376902997028,0.0313727113029162,3.1372711302916196e-05,0.227487504482269,-0.972720324993133,1.2002078294754
517089.551866753,31.083776837040205,0.0314581275372505,3.1458127537250505e-05,0.226456433534622,-0.972815811634063,1.19927224516868
517089.645866682,31.17777676600963,0.031553260198911,3.1553260198910996e-05,0.225444450974464,-0.972682178020477,1.19812662899494
517089.734266622,31.266176706005353,0.0316427243593136,3.16427243593136e-05,0.224432483315467,-0.972720324993133,1.1971528083086
517089.823866559,31.355776643031277,0.0317334033226966,3.17334033226966e-05,0.22342050075531,-0.972414851188659,1.19583535194397
517089.908066493,31.439976577006746,0.0318186162133746,3.18186162133746e-05,0.222408518195152,-0.972510337829589,1.19491885602474
517089.986866431,31.518776515033096,0.0318983653799295,3.1898365379929504e-05,0.221377447247505,-0.972586691379547,1.19396413862705
517090.069666378,31.601576462038793,0.0319821620026164,3.19821620026164e-05,0.220327287912368,-0.972682178020477,1.19300946593284
517090.149266306,31.681176390033215,0.0320627201154496,3.2062720115449597e-05,0.219315305352211,-0.97260582447052,1.19192112982273
517090.21226626,31.744176344014704,0.0321264785391887,3.21264785391887e-05,0.218284234404563,-0.972739458084106,1.19102369248867
517090.290266213,31.822176297020633,0.0322054173473384,3.2205417347338404e-05,0.217195883393287,-0.972624897956848,1.18982078135013
517090.371266145,31.903176229039673,0.0322873927240106,3.22873927240106e-05,0.216183900833129,-0.972663044929504,1.18884694576263
517090.447666095,31.979576179001015,0.0323647127962112,3.23647127962112e-05,0.215171918272972,-0.97260582447052,1.18777774274349
517090.513866042,32.04577612603316,0.0324317091896136,3.24317091896136e-05,0.214083567261695,-0.972643971443176,1.18672753870487
517090.589665982,32.121576066012494,0.0325084223284191,3.25084223284191e-05,0.213071584701538,-0.97254854440689,1.18562012910842
517090.651265935,32.183176018996164,0.0325707636188401,3.25707636188401e-05,0.212002336978912,-0.972624897956848,1.18462723493576
517090.725865889,32.257775973004755,0.0326462618056668,3.26462618056668e-05,0.210990354418754,-0.972491264343261,1.18348161876201
517090.788665843,32.32057592703495,0.032709817450828,3.2709817450828004e-05,0.209978371858596,-0.972491264343261,1.18246963620185
517090.848665794,32.38057587802177,0.03277053937708,3.277053937708e-05,0.208870932459831,-0.972586691379547,1.18145762383937
517090.914865749,32.44677583302837,0.0328375363673369,3.2837536367336895e-05,0.207858949899673,-0.972663044929504,1.18052199482917
517090.971065701,32.50297578499885,0.0328944132027228,3.2894413202722804e-05,0.206789687275886,-0.972491264343261,1.17928095161914
517091.032265655,32.56417573901126,0.032956349787063,3.2956349787063e-05,0.205777704715728,-0.972624897956848,1.17840260267257
517091.089265609,32.621175692998804,0.033014035734574,3.3014035734574004e-05,0.204746633768081,-0.972491264343261,1.17723789811134
517091.148065561,32.679975645034574,0.0330735433728562,3.3073543372856204e-05,0.203696474432945,-0.972472131252288,1.17616860568523
517091.20726552,32.739175604016054,0.0331334553358422,3.31334553358422e-05,0.202646300196647,-0.97245305776596,1.1750993579626
517091.252265492,32.78417557600187,0.0331789971562756,3.31789971562756e-05,0.201577052474021,-0.972586691379547,1.17416374385356
517091.309865446,32.84177553001791,0.0332372901749478,3.3237290174947805e-05,0.200565069913864,-0.972491264343261,1.17305633425712
517091.354265419,32.88617550302297,0.0332822242495483,3.32822242495483e-05,0.199553087353706,-0.972472131252288,1.17202521860599
517091.410465375,32.94237545900978,0.0333391010745234,3.33391010745234e-05,0.19846473634243,-0.97260582447052,1.17107056081295
517091.45366534,32.9855754240416,0.0333828213028642,3.33828213028642e-05,0.197433665394783,-0.972472131252288,1.16990579664707
517091.510465303,33.04237538704183,0.0334403041290707,3.34403041290707e-05,0.196421682834625,-0.972510337829589,1.16893202066421
517091.553665259,33.08557534299325,0.0334840248413615,3.3484024841361505e-05,0.195409700274467,-0.97254854440689,1.16795824468135
517091.606465229,33.13837531302124,0.0335374602325889,3.35374602325889e-05,0.194302260875701,-0.972529411315918,1.16683167219162
517091.648865188,33.18077527201967,0.0335803710031112,3.3580371003111195e-05,0.193271189928054,-0.97245305776596,1.16572424769401
517091.691265165,33.22317524900427,0.0336232810566028,3.3623281056602796e-05,0.192240118980407,-0.972529411315918,1.16476953029632
517091.73526513,33.26717521401588,0.0336678103860881,3.36678103860881e-05,0.19120904803276,-0.972510337829589,1.16371938586235
517091.780665096,33.312575180025306,0.0337137571458419,3.37137571458419e-05,0.190139785408973,-0.972414851188659,1.16255463659763
517091.824865067,33.3567751510418,0.0337584893670876,3.37584893670876e-05,0.189108714461326,-0.972491264343261,1.16159997880458
517091.864865029,33.396775113011245,0.0337989707851939,3.37989707851939e-05,0.18802036345005,-0.972472131252288,1.16049249470233
517091.905465003,33.437375086999964,0.033840059560736,3.3840059560736e-05,0.187008380889892,-0.972472131252288,1.15948051214218
517091.942064979,33.473975063010585,0.0338771005625062,3.38771005625062e-05,0.185996398329734,-0.972510337829589,1.15850673615932
517091.975864958,33.507775042031426,0.0339113075590928,3.39113075590928e-05,0.184946238994598,-0.972643971443176,1.15759021043777
517092.013664925,33.54557500901865,0.0339495625978973,3.3949562597897295e-05,0.183876976370811,-0.972739458084106,1.15661643445491
517092.052664889,33.58457497303607,0.0339890320233371,3.3989032023337096e-05,0.182807713747024,-0.972701251506805,1.15550896525383
517092.089664864,33.62157494801795,0.034026477883127,3.4026477883127e-05,0.181795731186866,-0.97254854440689,1.15434427559375
517092.12666484,33.65857492398936,0.0340639230400588,3.40639230400588e-05,0.18078376352787,-0.972586691379547,1.15337045490741
517092.154064817,33.6859749010182,0.0340916531577507,3.40916531577507e-05,0.179733589291572,-0.972739458084106,1.15247304737567
517092.189864793,33.72177487699082,0.0341278841366502,3.4127884136650204e-05,0.178626149892807,-0.972663044929504,1.15128919482231
517092.22366477,33.7555748540326,0.0341620912781026,3.41620912781026e-05,0.177614167332649,-0.972491264343261,1.15010543167591
517092.252064747,33.78397483099252,0.0341908332650661,3.41908332650661e-05,0.176602184772491,-0.972739458084106,1.14934164285659
517092.280864724,33.812774808029644,0.0342199798309273,3.42199798309273e-05,0.175590217113494,-0.972624897956848,1.14821511507034
517092.3112647,33.84317478403682,0.0342507459343274,3.42507459343274e-05,0.174559131264686,-0.972701251506805,1.14726038277149
517092.346464677,33.87837476102868,0.0342863694780932,3.42863694780932e-05,0.17354716360569,-0.972663044929504,1.14621020853519
517092.371064655,33.90297473903047,0.0343112654420534,3.43112654420534e-05,0.172516092658042,-0.972796738147735,1.14531283080577
517092.39786463,33.92977471399354,0.0343383878667089,3.43383878667089e-05,0.171504110097885,-0.972758531570434,1.14426264166832
517092.42706461,33.95897469401825,0.0343679392834504,3.43679392834504e-05,0.170453935861587,-0.972567617893219,1.1430215537548
517092.451264599,33.98317468300229,0.0343924302801423,3.43924302801423e-05,0.16944196820259,-0.972892165184021,1.14233413338661
517092.483064575,34.01497465901775,0.0344246131672726,3.44246131672726e-05,0.168429985642433,-0.972796738147735,1.14122672379016
517092.506864562,34.03877464600373,0.0344486993943452,3.44486993943452e-05,0.167379826307296,-0.972682178020477,1.14006200432777
517092.531464538,34.06337462202646,0.034473595799711,3.4473595799711e-05,0.166291460394859,-0.972987651824951,1.13927911221981
517092.560064514,34.091974598006345,0.0345025399082766,3.45025399082766e-05,0.165279492735862,-0.972873091697692,1.13815258443355
517092.584064493,34.11597457702737,0.0345268286701175,3.45268286701175e-05,0.164267510175705,-0.972682178020477,1.13694968819618
517092.607064483,34.13897456700215,0.0345501057817141,3.45501057817141e-05,0.163236439228057,-0.972777605056762,1.13601404428482
517092.629464467,34.16137455101125,0.0345727755357821,3.45727755357821e-05,0.162148088216781,-0.972834885120391,1.13498297333717
517092.653664445,34.18557452899404,0.0345972673270702,3.45972673270702e-05,0.161136105656623,-0.972892165184021,1.13402827084064
517092.676664425,34.20857450901531,0.034620544262131,3.4620544262131e-05,0.160085946321487,-0.972892165184021,1.1329781115055
517092.694064422,34.22597450600006,0.0346381538715892,3.46381538715892e-05,0.15905487537384,-0.972987651824951,1.13204252719879
517092.721664397,34.253574481001124,0.0346660859801901,3.46660859801901e-05,0.158023789525032,-0.972815811634063,1.13083960115909
517092.745464375,34.27737445902312,0.0346901722778479,3.46901722778479e-05,0.156992718577384,-0.97285395860672,1.1298466771841
517092.763264367,34.29517445102101,0.0347081868335008,3.47081868335008e-05,0.155980750918388,-0.972930371761322,1.12891112267971
517092.785464351,34.31737443502061,0.0347306540280845,3.47306540280845e-05,0.15496876835823,-0.973006725311279,1.12797549366951
517092.805464327,34.33737441099947,0.0347508950337303,3.47508950337303e-05,0.153918594121933,-0.972815811634063,1.12673440575599
517092.825264321,34.35717440501321,0.0347709336353142,3.47709336353142e-05,0.152906626462936,-0.972930371761322,1.12583699822425
517092.845264305,34.37717438902473,0.0347911741995811,3.4791174199581104e-05,0.151856452226638,-0.972739458084106,1.12459591031074
517092.864464284,34.396374367992394,0.0348106051539579,3.48106051539579e-05,0.150844484567642,-0.972987651824951,1.12383213639259
517092.882864283,34.4147743670037,0.0348292272084818,3.48292272084818e-05,0.149832502007484,-0.972930371761322,1.1227628737688
517092.898464257,34.430374341027346,0.0348450152963929,3.4845015296392905e-05,0.148820519447326,-0.972930371761322,1.12175089120864
517092.916064256,34.447974340000656,0.0348628272219101,3.48628272219101e-05,0.14777036011219,-0.97304493188858,1.12081529200077
517092.933864235,34.46577431901824,0.0348808412194649,3.48808412194649e-05,0.146720185875892,-0.973140358924865,1.11986054480075
517092.951664226,34.4835743100266,0.0348988555881182,3.48988555881182e-05,0.145708218216896,-0.973216712474823,1.11892493069171
517092.970464211,34.50237429502886,0.0349178820836808,3.49178820836808e-05,0.144638955593109,-0.973159432411193,1.1177983880043
517092.988064194,34.51997427799506,0.0349356939915286,3.49356939915286e-05,0.143626973032951,-0.973178565502166,1.11680553853511
517093.004264188,34.53617427201243,0.0349520892991887,3.4952089299188703e-05,0.142576813697814,-0.973083078861236,1.11565989255905
517093.018864171,34.550774255010765,0.0349668652882973,3.49668652882973e-05,0.141507551074028,-0.973178565502166,1.11468611657619
517093.034664164,34.566574248019606,0.0349828556816312,3.49828556816312e-05,0.14047648012638,-0.973273992538452,1.11375047266483
517093.051264146,34.58317423000699,0.0349996553739838,3.49996553739838e-05,0.139388129115104,-0.973312199115753,1.11270032823085
517093.068264142,34.60017422604142,0.0350168598428964,3.5016859842896406e-05,0.138357043266296,-0.973216712474823,1.11157375574111
517093.08406412,34.61597420403268,0.035032849988977,3.5032849988977e-05,0.137325972318649,-0.973140358924865,1.11046633124351
517093.096864118,34.628774202021305,0.0350458041140503,3.5045804114050296e-05,0.136294901371002,-0.973159432411193,1.10945433378219
517093.110264105,34.64217418903718,0.0350593654164208,3.50593654164208e-05,0.135244742035865,-0.973197638988494,1.10844238102436
517093.127064095,34.65897417900851,0.0350763674919075,3.50763674919075e-05,0.134232759475708,-0.973235845565795,1.1074686050415
517093.139664085,34.671574169013184,0.0350891194034152,3.50891194034152e-05,0.13322077691555,-0.973331272602081,1.10655204951763
517093.152464073,34.68437415699009,0.0351020735107792,3.51020735107792e-05,0.132208809256553,-0.973407626152038,1.10561643540859
517093.166664069,34.69857415300794,0.0351164447408252,3.51164447408252e-05,0.131196826696395,-0.973235845565795,1.10443267226219
517093.178864048,34.710774131992366,0.0351287913246022,3.51287913246022e-05,0.130127564072608,-0.973350346088409,1.10347791016101
517093.191264047,34.72317413100973,0.0351413406304783,3.51413406304783e-05,0.129115581512451,-0.973350346088409,1.10246592760086
517093.206064032,34.73797411599662,0.0351563186458746,3.51563186458746e-05,0.128084510564804,-0.97338855266571,1.10147306323051
517093.216064025,34.747974109021015,0.0351664390021297,3.51664390021297e-05,0.127053439617157,-0.973445832729339,1.10049927234649
517093.229264022,34.76117410603911,0.0351797975118557,3.5179797511855705e-05,0.12604147195816,-0.973331272602081,1.09937274456024
517093.243264001,34.775174084992614,0.035193965797411,3.5193965797411e-05,0.125029489398002,-0.973369479179382,1.09839896857738
517093.253264002,34.78517408599146,0.0352040861007637,3.5204086100763696e-05,0.123979315161705,-0.973541319370269,1.09752063453197
517093.266463989,34.79837407299783,0.035217444977747,3.5217444977747004e-05,0.122929155826568,-0.973426759243011,1.09635591506958
517093.27746398,34.809374064032454,0.0352285777225229,3.52285777225229e-05,0.121859893202781,-0.973445832729339,1.09530572593212
517093.28946398,34.82137406402035,0.0352407221775187,3.52407221775187e-05,0.120847910642623,-0.973522186279296,1.09437009692192
517093.301863959,34.83377404301427,0.0352532716423272,3.52532716423272e-05,0.119816839694976,-0.973445832729339,1.09326267242431
517093.310263955,34.84217403898947,0.0352617727718617,3.5261772771861706e-05,0.118785768747329,-0.973407626152038,1.09219339489936
517093.322263954,34.85417403798783,0.0352739170926941,3.5273917092694096e-05,0.117754697799682,-0.973426759243011,1.09118145704269
517093.332063937,34.86397402099101,0.0352838350660933,3.5283835066093295e-05,0.116742722690105,-0.973579466342926,1.09032218903303
517093.344463932,34.87637401599204,0.0352963844885693,3.52963844885693e-05,0.115692555904388,-0.973503112792968,1.08919566869735
517093.352663932,34.884574016032275,0.035304683305674,3.5304683305674005e-05,0.114661484956741,-0.973560392856597,1.08822187781333
517093.365263911,34.8971739950357,0.0353174350371228,3.53174350371228e-05,0.113611318171024,-0.97348403930664,1.08709535747766
517093.373463909,34.905373993038666,0.0353257336388163,3.53257336388163e-05,0.112542055547237,-0.973655819892883,1.08619787544012
517093.385263906,34.91717398999026,0.0353376757921642,3.53376757921642e-05,0.11149188876152,-0.973541319370269,1.08503320813179
517093.394063891,34.925973975041416,0.0353465816171831,3.5346581617183096e-05,0.110441721975803,-0.973598539829254,1.08404026180505
517093.405663886,34.93757397000445,0.0353583210730552,3.5358321073055197e-05,0.109429746866226,-0.973503112792968,1.08293285965919
517093.414263887,34.946173970995005,0.0353670245185692,3.53670245185692e-05,0.10830320417881,-0.973789453506469,1.08209265768528
517093.425863867,34.95777395099867,0.0353787639568249,3.53787639568249e-05,0.107253037393093,-0.973732233047485,1.08098527044057
517093.434463863,34.966373947041575,0.0353874674269622,3.53874674269622e-05,0.106221966445446,-0.973789453506469,1.08001141995191
517093.444263863,34.97617394704139,0.0353973852342499,3.53973852342499e-05,0.105171799659729,-0.973598539829254,1.07877033948898
517093.452263852,34.98417393601267,0.0354054815976884,3.54054815976884e-05,0.104140728712081,-0.9739231467247,1.07806387543678
517093.462463839,34.99437392299296,0.0354158044147358,3.54158044147358e-05,0.103128746151924,-0.973636746406555,1.07676549255847
517093.470463839,35.0023739230237,0.0354239008136192,3.54239008136192e-05,0.102097675204277,-0.973789453506469,1.07588712871074
517093.478863837,35.01077392103616,0.0354324019042915,3.54324019042915e-05,0.101066604256629,-0.973751306533813,1.07481791079044
517093.487463822,35.01937390601961,0.0354411053356064,3.5441105335606396e-05,0.100035533308982,-0.973789453506469,1.07382498681545
517093.489663818,35.02157390199136,0.0354433317079808,3.54433317079808e-05,0.0999018773436546,-0.973713099956512,1.07361497730016
517093.489863818,35.02177390200086,0.0354435341016186,3.5443534101618604e-05,0.0997491255402565,-0.973942220211029,1.07369134575128
