time/s,reltime/s,C/mA.h,C/A.h,Ewe/V,Ece/V,Ewe-Ece/V
488227.994770245,0.0,0.0,0.0,0.79344767332077,-1.02455842494964,1.81800609827041
488227.994970245,0.00020000000949949026,8.0866664648056e-09,8.0866664648056e-12,0.788635849952697,-1.02343583106994,1.81207168102264
488227.995170245,0.0004000000189989805,1.61740399069256e-08,1.6174039906925602e-11,0.784381031990051,-1.02151882648468,1.80589985847473
488227.995570246,0.0008000010275281966,3.23583326405949e-08,3.23583326405949e-11,0.782796263694763,-1.02001059055328,1.80280685424804
488227.996170246,0.0014000009978190064,5.66215134329266e-08,5.6621513432926605e-11,0.781784236431121,-1.01932322978973,1.80110746622085
488227.997570245,0.002800000016577542,1.1324620909161e-07,1.1324620909160999e-10,0.780714988708496,-1.01863598823547,1.79935097694397
488227.999570245,0.004799999995157123,1.94157065616713e-07,1.94157065616713e-10,0.779664814472198,-1.01815867424011,1.79782348871231
488228.002570244,0.007799999031703919,3.15513625741004e-07,3.1551362574100395e-10,0.778652846813201,-1.0174331665039,1.7960860133171
488228.005970245,0.011200000008102506,4.5304599404335e-07,4.5304599404335e-10,0.777564525604248,-1.01703226566314,1.79459679126739
488228.010770241,0.015999995986931026,6.47218261328008e-07,6.472182613280079e-10,0.776476144790649,-1.01657402515411,1.79305016994476
488228.015370233,0.020599987998139113,8.33307041062249e-07,8.33307041062249e-10,0.775368690490722,-1.01619219779968,1.7915608882904
488228.020570226,0.025799981027375907,1.04366324676407e-06,1.04366324676407e-09,0.774146676063537,-1.01600122451782,1.79014790058136
488228.025370222,0.030599977006204426,1.23783515807655e-06,1.23783515807655e-09,0.773020148277282,-1.01594400405883,1.78896415233612
488228.030770222,0.03599997702986002,1.45627095964219e-06,1.4562709596421901e-09,0.771989107131958,-1.01579129695892,1.78778040409088
488228.036170222,0.04139997699530795,1.6747180753284e-06,1.6747180753284e-09,0.770977079868316,-1.0155621767044,1.78653925657272
488228.040570221,0.04579997604014352,1.85270852512783e-06,1.8527085251278299e-09,0.76996511220932,-1.01554310321807,1.78550821542739
488228.044770214,0.04999996902188286,2.02258720662858e-06,2.02258720662858e-09,0.768953144550323,-1.01575303077697,1.7847061753273
488228.050570204,0.0557999589946121,2.25720482567946e-06,2.25720482567946e-09,0.767883896827697,-1.01542854309082,1.78331243991851
488228.056370199,0.06159995403140783,2.49184259606732e-06,2.49184259606732e-09,0.766814649105072,-1.01529490947723,1.7821095585823
488228.061570199,0.06679995398735628,2.70219243814547e-06,2.70219243814547e-09,0.765764474868774,-1.01525676250457,1.78102123737335
488228.066770198,0.07199995301198214,2.91254439867205e-06,2.9125443986720497e-09,0.764676094055175,-1.01523756980896,1.77991366386413
488228.072970196,0.07819995103636757,3.16335373371839e-06,3.16335373371839e-09,0.763645052909851,-1.01510393619537,1.77874898910522
488228.078170187,0.08339994202833623,3.37372231566243e-06,3.3737223156624297e-09,0.762594878673553,-1.01508486270904,1.77767974138259
488228.083170179,0.08839993400033563,3.57600281139214e-06,3.57600281139214e-09,0.761563777923584,-1.01504671573638,1.77661049365997
488228.088370176,0.09359993098769337,3.78637032955884e-06,3.78637032955884e-09,0.760532736778259,-1.0151230096817,1.77565574645996
488228.094770176,0.09999993100063875,4.04526279618342e-06,4.04526279618342e-09,0.759482562541961,-1.0148366689682,1.77431923151016
488228.100170176,0.10539993102429435,4.26372546619839e-06,4.2637254661983896e-09,0.758451461791992,-1.01479852199554,1.77324998378753
488228.104770172,0.10999992699362338,4.44980010638634e-06,4.44980010638634e-09,0.757439494132995,-1.0149130821228,1.77235257625579
488228.11157016,0.11679991503478959,4.72488004465897e-06,4.72488004465897e-09,0.756427526473999,-1.01479852199554,1.77122604846954
488228.116970151,0.12219990603625774,4.94331584539678e-06,4.94331584539678e-09,0.755415558815002,-1.01472210884094,1.77013766765594
488228.122170153,0.12739990802947432,5.15368336521917e-06,5.15368336521917e-09,0.754365384578704,-1.01464581489563,1.76901119947433
488228.127970152,0.133199907024391,5.38830133693085e-06,5.38830133693085e-09,0.753257930278778,-1.01477944850921,1.76803737878799
488228.134770151,0.13999990600859746,5.66339152968592e-06,5.66339152968592e-09,0.75220775604248,-1.0145503282547,1.76675808429718
488228.140770141,0.1459998959908262,5.90610960291491e-06,5.90610960291491e-09,0.751138508319854,-1.01464581489563,1.76578432321548
488228.145370133,0.15059988800203428,6.09219909128215e-06,6.09219909128215e-09,0.750126540660858,-1.01472210884094,1.7648486495018
488228.15277013,0.15799988503567874,6.39154291980796e-06,6.39154291980796e-09,0.748942732810974,-1.01443576812744,1.76337850093841
488228.159370129,0.16459988401038572,6.65853477931685e-06,6.65853477931685e-09,0.747930705547332,-1.01451218128204,1.76244288682937
488228.16437013,0.16959988500457257,6.86080396340953e-06,6.86080396340953e-09,0.746861457824707,-1.01456940174102,1.76143085956573
488228.171170119,0.17639987403526902,7.13587754054202e-06,7.135877540542019e-09,0.745830416679382,-1.01445484161377,1.76028525829315
488228.177970107,0.18319986201822758,7.41096243013938e-06,7.41096243013938e-09,0.744780242443084,-1.01424479484558,1.75902503728866
488228.183170107,0.18839986203238368,7.62133313053184e-06,7.62133313053184e-09,0.743730068206787,-1.01439762115478,1.75812768936157
488228.188570106,0.19379986100830138,7.83977635867065e-06,7.83977635867065e-09,0.742679893970489,-1.01451218128204,1.75719207525253
488228.195770107,0.2009998619905673,8.13102751059664e-06,8.131027510596641e-09,0.741667926311492,-1.01434028148651,1.756008207798
488228.201570097,0.2067998520215042,8.36566845907105e-06,8.36566845907105e-09,0.740636825561523,-1.01416850090026,1.75480532646179
488228.207370087,0.21259984199423343,8.6002973905868e-06,8.6002973905868e-09,0.739605784416198,-1.01445484161377,1.75406062602996
488228.214370084,0.21959983900887892,8.88345233102639e-06,8.883452331026391e-09,0.738593816757202,-1.01432120800018,1.75291502475738
488228.220370083,0.22559983801329508,9.12618843466043e-06,9.12618843466043e-09,0.737524509429931,-1.01432120800018,1.75184571743011
488228.226370084,0.23159983899677172,9.36890615605645e-06,9.36890615605645e-09,0.736474394798278,-1.01434028148651,1.75081467628479
488228.233170073,0.23839982802746817,9.64397619581884e-06,9.643976195818841e-09,0.735424220561981,-1.01416850090026,1.74959272146225
488228.240170061,0.24539981601992622,9.92714527414904e-06,9.927145274149041e-09,0.734354972839355,-1.01411116123199,1.74846613407135
488228.24597006,0.2511998150148429,1.0161752284401e-05,1.0161752284401e-08,0.733304798603057,-1.01434028148651,1.74764508008956
488228.253170058,0.2583998130285181,1.04530161627464e-05,1.04530161627464e-08,0.732235491275787,-1.01413023471832,1.74636572599411
488228.260570056,0.26579981099348515,1.07523741316464e-05,1.0752374131646401e-08,0.731204450130462,-1.01403486728668,1.74523931741714
488228.265770047,0.2709998019854538,1.09627335179183e-05,1.09627335179183e-08,0.730192482471466,-1.01411116123199,1.74430364370346
488228.273770035,0.2789997900254093,1.12863666878806e-05,1.1286366687880598e-08,0.729161381721496,-1.01413023471832,1.74329161643981
488228.279970036,0.28519979101838544,1.15371703662806e-05,1.15371703662806e-08,0.728111207485199,-1.01405394077301,1.7421651482582
488228.285570035,0.2907997900038026,1.176369742718e-05,1.176369742718e-08,0.727099239826202,-1.01405394077301,1.74115318059921
488228.293970029,0.2991997839999385,1.21035163063142e-05,1.21035163063142e-08,0.725991785526275,-1.01390123367309,1.73989301919937
488228.300770018,0.30599977303063497,1.23785916508899e-05,1.23785916508899e-08,0.724903464317321,-1.01405394077301,1.73895740509033
488228.307370013,0.31259976798901334,1.26455562868052e-05,1.2645556286805199e-08,0.723853290081024,-1.01399660110473,1.73784989118576
488228.314770013,0.3199997679912485,1.29448997593588e-05,1.29448997593588e-08,0.722822189331054,-1.01388204097747,1.73670423030853
488228.321770012,0.3269997669849545,1.32280617679158e-05,1.32280617679158e-08,0.721810221672058,-1.01390123367309,1.73571145534515
488228.327970001,0.33319975598715246,1.34788700441519e-05,1.34788700441519e-08,0.720721900463104,-1.01388204097747,1.73460394144058
488228.337369989,0.3425997440353967,1.38591247275471e-05,1.38591247275471e-08,0.719576239585876,-1.01382482051849,1.73340106010437
488228.34376999,0.34899974503787234,1.41180309810572e-05,1.41180309810572e-08,0.718564271926879,-1.0139775276184,1.73254179954528
488228.350969991,0.35619974602013826,1.4409314305418e-05,1.4409314305418e-08,0.717552304267883,-1.01388204097747,1.73143434524536
488228.359169978,0.36439973302185535,1.47409994958175e-05,1.4740999495817501e-08,0.716521203517913,-1.01374840736389,1.7302696108818
488228.365169968,0.3703997230040841,1.4983716154264e-05,1.4983716154264002e-08,0.715509235858917,-1.01388204097747,1.72939127683639
488228.374569966,0.37979972100583836,1.53639736663964e-05,1.5363973666396397e-08,0.714344501495361,-1.01378667354583,1.72813117504119
488228.382169967,0.38739972200710326,1.5671394969854e-05,1.5671394969854e-08,0.713256180286407,-1.01371026039123,1.72696644067764
488228.389769956,0.39499971101759,1.59788434952497e-05,1.59788434952497e-08,0.712225079536438,-1.0137676000595,1.72599267959594
488228.398569942,0.4037996970000677,1.63348325259155e-05,1.6334832525915497e-08,0.711194038391113,-1.01367211341857,1.72486615180969
488228.405569943,0.41079969803104177,1.66180026655395e-05,1.66180026655395e-08,0.710143864154815,-1.01372933387756,1.72387319803237
488228.415169943,0.420399698021356,1.70063786630829e-05,1.70063786630829e-08,0.709093689918518,-1.01355755329132,1.72265124320983
488228.422169931,0.42739968601381406,1.72895484525296e-05,1.72895484525296e-08,0.708081722259521,-1.01371026039123,1.72179198265075
488228.430569919,0.4357996740145609,1.76293652090761e-05,1.76293652090761e-08,0.707012414932251,-1.01374840736389,1.72076082229614
488228.43896992,0.4441996749956161,1.79691717136237e-05,1.79691717136237e-08,0.706000447273254,-1.01359570026397,1.71959614753723
488228.446569919,0.4517996740178205,1.82766280190812e-05,1.82766280190812e-08,0.704988479614257,-1.01367211341857,1.71866059303283
488228.456969901,0.46219965600175783,1.86973407831456e-05,1.86973407831456e-08,0.703881025314331,-1.01357662677764,1.71745765209198
488228.464569897,0.4697996519971639,1.90048020357887e-05,1.90048020357887e-08,0.702830851078033,-1.01363396644592,1.71646481752395
488228.473769896,0.4789996510371566,1.93769668738047e-05,1.93769668738047e-08,0.701818883419036,-1.01346206665039,1.71528095006942
488228.482169888,0.48739964299602434,1.97167861072553e-05,1.9716786107255297e-08,0.700749635696411,-1.01367211341857,1.71442174911499
488228.492769872,0.4979996270267293,2.01455756376187e-05,2.01455756376187e-08,0.699642181396484,-1.01346206665039,1.71310424804687
488228.501769873,0.506999628036283,2.05096637076801e-05,2.05096637076801e-08,0.698630213737487,-1.0134048461914,1.71203505992889
488228.511569868,0.5167996230302379,2.09060910170277e-05,2.09060910170277e-08,0.697599112987518,-1.01342391967773,1.71102303266525
488228.521169852,0.5263996070134453,2.12944539330071e-05,2.12944539330071e-08,0.696529865264892,-1.01338577270507,1.70991563796997
488228.53136985,0.5365996049949899,2.17070775528748e-05,2.17070775528748e-08,0.695479691028595,-1.01348114013671,1.70896083116531
488228.541969846,0.547199601016473,2.21358596591485e-05,2.21358596591485e-08,0.694391369819641,-1.0133284330368,1.70771980285644
488228.55176983,0.55699958500918,2.25323071181774e-05,2.25323071181774e-08,0.693360269069671,-1.01336658000946,1.70672684907913
488228.561969827,0.5671995820011944,2.29449466500017e-05,2.29449466500017e-08,0.692291021347045,-1.01338577270507,1.70567679405212
488228.573969822,0.579199577041436,2.34303492100702e-05,2.34303492100702e-08,0.691240847110748,-1.01334750652313,1.70458835363388
488228.584169805,0.589399560005404,2.38429707114895e-05,2.3842970711489502e-08,0.690133392810821,-1.01338577270507,1.7035191655159
488228.597369802,0.6025995570234954,2.43769473607341e-05,2.43769473607341e-08,0.689083218574523,-1.01315665245056,1.70223987102508
488228.606169797,0.6113995520281605,2.47329618467225e-05,2.47329618467225e-08,0.688013970851898,-1.0133284330368,1.7013424038887
488228.62016978,0.6253995349979959,2.52993229900797e-05,2.52993229900797e-08,0.6869637966156,-1.0132520198822,1.7002158164978
488228.632369781,0.6375995359849185,2.57928560533457e-05,2.57928560533457e-08,0.685951828956604,-1.01330935955047,1.69926118850708
488228.643969763,0.6491995180258527,2.62621022479401e-05,2.62621022479401e-08,0.684920787811279,-1.0133284330368,1.69824922084808
488228.656569757,0.6617995119886473,2.67718217256996e-05,2.67718217256996e-08,0.683908760547637,-1.01302301883697,1.69693177938461
488228.668169751,0.6733995060203597,2.72410757020115e-05,2.72410757020115e-08,0.682782232761383,-1.01334750652313,1.69612973928451
488228.683369734,0.6885994889889844,2.78559759333729e-05,2.7855975933372898e-08,0.681712985038757,-1.01319479942321,1.69490778446197
488228.696969732,0.702199487015605,2.84061407604151e-05,2.8406140760415098e-08,0.680662810802459,-1.01306116580963,1.69372397661209
488228.711369709,0.7165994640090503,2.89886483674248e-05,2.89886483674248e-08,0.679650843143463,-1.01311838626861,1.69276922941207
488228.725169711,0.7303994660032913,2.95468917298648e-05,2.95468917298648e-08,0.678619742393493,-1.01317572593689,1.69179546833038
488228.740569688,0.7457994429860264,3.01699030217197e-05,3.01699030217197e-08,0.67756962776184,-1.01313757896423,1.69070720672607
488228.756369687,0.7615994419902563,3.08090738596187e-05,3.08090738596187e-08,0.676481246948242,-1.01294660568237,1.68942785263061
488228.771169666,0.7763994210399687,3.14078131318092e-05,3.14078131318092e-08,0.675450205802917,-1.01300382614135,1.68845403194427
488228.786369663,0.7915994180366397,3.2022702757683e-05,3.2022702757683e-08,0.674438178539276,-1.01311838626861,1.68755656480789
488228.80376964,0.8089993949979544,3.27266008671787e-05,3.27266008671787e-08,0.673426210880279,-1.01302301883697,1.68644922971725
488228.82156964,0.8267993950285017,3.34466645278864e-05,3.34466645278864e-08,0.672376036643981,-1.01287019252777,1.68524622917175
488228.840369618,0.8455993729876354,3.42072173853715e-05,3.42072173853715e-08,0.671344995498657,-1.01283204555511,1.68417704105377
488228.858569607,0.8637993620359339,3.4943454734981e-05,3.4943454734981e-08,0.670294821262359,-1.01279389858245,1.68308871984481
488228.878769592,0.8839993469882756,3.57606570348143e-05,3.57606570348143e-08,0.669282853603363,-1.01279389858245,1.68207675218582
488228.896969571,0.9021993260248564,3.64969032166732e-05,3.6496903216673196e-08,0.668270885944366,-1.01275563240051,1.68102651834487
488228.917969565,0.9231993200373836,3.73463800574342e-05,3.73463800574342e-08,0.667258858680725,-1.01279389858245,1.68005275726318
488228.938969547,0.944199302000925,3.81958459359076e-05,3.81958459359076e-08,0.666208744049072,-1.01279389858245,1.67900264263153
488228.959369525,0.9645992800360546,3.90210984870791e-05,3.90210984870791e-08,0.665177643299102,-1.01271748542785,1.67789512872695
488228.982569515,0.9877992700203322,3.99596371956997e-05,3.9959637195699705e-08,0.664146542549133,-1.01279389858245,1.67694044113159
488229.0053695,1.0105992550379597,4.08820177656081e-05,4.0882017765608104e-08,0.663134574890136,-1.01275563240051,1.67589020729064
488229.028769477,1.0339992319932207,4.18285886877113e-05,4.18285886877113e-08,0.66212260723114,-1.01269841194152,1.67482101917266
488229.057569454,1.062799209030345,4.29936625924375e-05,4.29936625924375e-08,0.661091566085815,-1.01258385181427,1.67367541790008
488229.081369437,1.0865991919999942,4.39564662509494e-05,4.39564662509494e-08,0.660041391849517,-1.01260292530059,1.67264431715011
488229.108369421,1.1135991759947501,4.50487078304092e-05,4.50487078304092e-08,0.659029424190521,-1.01264119148254,1.67167061567306
488229.138969399,1.1441991539904848,4.62866632002923e-05,4.62866632002923e-08,0.657998323440551,-1.01246929168701,1.67046761512756
488229.166769381,1.1719991359859705,4.74112443700432e-05,4.74112443700432e-08,0.656986355781555,-1.01262199878692,1.66960835456848
488229.200369354,1.2055991090019234,4.87705301311281e-05,4.87705301311281e-08,0.655974388122558,-1.01245021820068,1.66842460632324
488229.230969332,1.236199086997658,5.00084154961837e-05,5.0008415496183705e-08,0.654962420463562,-1.01254570484161,1.66750812530517
488229.264169305,1.269399059994612,5.13514918668402e-05,5.1351491866840206e-08,0.65395039319992,-1.01254570484161,1.66649609804153
488229.301569271,1.3067990260315128,5.2864458584951e-05,5.2864458584951e-08,0.652881145477294,-1.01241207122802,1.66529321670532
488229.340569245,1.3457990000024438,5.44421872107519e-05,5.44421872107519e-08,0.65185010433197,-1.01231658458709,1.66416668891906
488229.379969221,1.385198976029642,5.6036076809797e-05,5.6036076809797e-08,0.650799930095672,-1.01227843761444,1.66307836771011
488229.420969188,1.4261989429942332,5.76946554887626e-05,5.76946554887626e-08,0.649768829345703,-1.01222109794616,1.66198992729187
488229.462569151,1.467798906029202,5.93775220960378e-05,5.9377522096037804e-08,0.648718655109405,-1.01225936412811,1.66097801923751
488229.503169127,1.5083988819969818,6.10199246100253e-05,6.101992461002531e-08,0.64768761396408,-1.01218295097351,1.65987056493759
488229.547569092,1.5527988470275886,6.28160918802023e-05,6.28160918802023e-08,0.646675646305084,-1.01231658458709,1.65899223089218
488229.598569058,1.603798813011963,6.48792142321666e-05,6.487921423216661e-08,0.645663678646087,-1.01206839084625,1.65773206949234
488229.645169016,1.6503987709875219,6.67643521519171e-05,6.67643521519171e-08,0.644594371318817,-1.01220202445983,1.65679639577865
488229.702568978,1.7077987330267206,6.90864122286439e-05,6.90864122286439e-08,0.643563330173492,-1.01208746433258,1.65565079450607
488229.760168939,1.765398694027681,7.14164511329598e-05,7.14164511329598e-08,0.642513155937194,-1.01195383071899,1.65446698665618
488229.820968896,1.8261986509896815,7.38760425142116e-05,7.38760425142116e-08,0.641424775123596,-1.01193475723266,1.65335953235626
488229.88276885,1.8879986050305888,7.6376059456004e-05,7.637605945600401e-08,0.640412807464599,-1.01195383071899,1.65236663818359
488229.941368801,1.9465985560091212,7.87466458951433e-05,7.87466458951433e-08,0.639400839805603,-1.0118201971054,1.65122103691101
488230.005768755,2.010998509998899,8.13518807085024e-05,8.13518807085024e-08,0.638331592082977,-1.01183927059173,1.65017086267471
488230.08256869,2.087798445019871,8.44587490426169e-05,8.445874904261689e-08,0.63731962442398,-1.01178205013275,1.64910167455673
488230.147768639,2.152998394041788,8.70963064779838e-05,8.70963064779838e-08,0.636269450187683,-1.01178205013275,1.64805150032043
488230.224768593,2.229998347989749,9.02112116267283e-05,9.02112116267283e-08,0.635238349437713,-1.01172471046447,1.64696305990219
488230.307568523,2.3127982779988088,9.35608959645032e-05,9.35608959645032e-08,0.634207308292388,-1.0118201971054,1.64602750539779
488230.388968467,2.394198222027626,9.68538725285066e-05,9.68538725285066e-08,0.633157134056091,-1.01170563697814,1.64486277103424
488230.484568394,2.489798149035778,0.000100721226896676,1.0072122689667599e-07,0.632068753242492,-1.0114574432373,1.64352619647979
488230.583968315,2.5891980699962005,0.000104742377107342,1.04742377107342e-07,0.631056785583496,-1.01149559020996,1.64255237579345
488230.682368244,2.6875979989999905,0.000108723081276648,1.08723081276648e-07,0.630025744438171,-1.01143836975097,1.64146411418914
488230.783368173,2.7885979280108586,0.000112808913511534,1.12808913511534e-07,0.62901371717453,-1.0113810300827,1.64039474725723
488230.884168103,2.8893978580017574,0.000116886593326098,1.16886593326098e-07,0.628001749515533,-1.01136195659637,1.6393637061119
488230.987768016,2.992997771012597,0.000121077610202961,1.2107761020296101e-07,0.626970708370208,-1.0113810300827,1.63835173845291
488231.105367936,3.1105976910330355,0.000125834962776965,1.25834962776965e-07,0.625939607620239,-1.01136195659637,1.63730156421661
488231.228567846,3.233797601016704,0.000130818806333674,1.30818806333674e-07,0.624927639961242,-1.01136195659637,1.63628959655761
488231.363367736,3.3685974910040386,0.000136272052017351,1.3627205201735101e-07,0.623915672302246,-1.01119017601013,1.63510584831237
488231.490967638,3.4961973929894157,0.000141433977966507,1.4143397796650701e-07,0.622903704643249,-1.01113283634185,1.6340365409851
488231.643567528,3.6487972830072977,0.000147607283780972,1.47607283780972e-07,0.62187260389328,-1.01103746891021,1.63291007280349
488231.785367427,3.790597182000056,0.000153343640550143,1.53343640550143e-07,0.620860636234283,-1.01107561588287,1.63193625211715
488231.943567312,3.9487970669870265,0.000159743489321735,1.5974348932173499e-07,0.619848668575286,-1.01094198226928,1.63079065084457
488232.087567195,4.092796950018965,0.000165568947911262,1.6556894791126198e-07,0.618817567825317,-1.01092290878295,1.62974047660827
488232.269567061,4.274796815996524,0.000172931622958845,1.7293162295884498e-07,0.61780560016632,-1.01096105575561,1.62876665592193
488232.465166917,4.470396672026254,0.000180844323549005,1.80844323549005e-07,0.616755425930023,-1.01084649562835,1.62760192155838
488232.648166775,4.653396530018654,0.000188247297243111,1.8824729724311103e-07,0.615724384784698,-1.01078927516937,1.62651365995407
488232.847166636,4.852396391041111,0.000196297618961168,1.96297618961168e-07,0.614712417125701,-1.01071286201477,1.62542527914047
488233.066566473,5.0717962280032225,0.000205173220083117,2.05173220083117e-07,0.61370038986206,-1.01059830188751,1.62429869174957
488233.286566311,5.29179606604157,0.000214073107740117,2.1407310774011699e-07,0.612688422203064,-1.01050281524658,1.62319123744964
488233.507166149,5.512395903992001,0.000222997146126296,2.22997146126296e-07,0.611657381057739,-1.01054108142852,1.62219846248626
488233.766765948,5.771995702991262,0.000233499044318166,2.33499044318166e-07,0.610626280307769,-1.01042652130127,1.62105280160903
488234.005965775,6.01119553000899,0.000243175520968933,2.43175520968933e-07,0.609595239162445,-1.01040744781494,1.62000268697738
488234.289365567,6.294595321989618,0.000254639935389161,2.54639935389161e-07,0.608583211898803,-1.0102355480194,1.61881875991821
488234.586765332,6.5919950869865716,0.000266671000855664,2.66671000855664e-07,0.607552170753479,-1.01021647453308,1.61776864528656
488234.884965121,6.890194876003079,0.000278734420754015,2.78734420754015e-07,0.606521070003509,-1.01008284091949,1.616603910923
488235.206964872,7.212194627034478,0.00029176054039018,2.9176054039017997e-07,0.605490028858184,-1.01012098789215,1.61561101675033
488235.526164635,7.531394390040077,0.000304673422632945,3.04673422632945e-07,0.604458928108215,-1.00998735427856,1.61444628238678
488235.888964369,7.894194124033675,0.000319349940564069,3.19349940564069e-07,0.603446960449218,-1.01006376743316,1.61351072788238
488236.265164088,8.270393843005877,0.000334568673480716,3.34568673480716e-07,0.602434992790222,-1.00981557369232,1.61225056648254
488236.630563819,8.635793574037962,0.000349350494860775,3.49350494860775e-07,0.601403951644897,-1.00977742671966,1.61118137836456
488237.030163517,9.035393272002693,0.000365515837244689,3.65515837244689e-07,0.600391924381256,-1.00973916053772,1.61013108491897
488237.469763191,9.474992946023121,0.000383299519434571,3.83299519434571e-07,0.599341750144958,-1.00970101356506,1.60904276371002
488237.930362841,9.935592596011702,0.000401932712077266,4.01932712077266e-07,0.598329782485961,-1.00970101356506,1.60803079605102
488238.407762492,10.41299224703107,0.000421245252531435,4.21245252531435e-07,0.597317814826965,-1.00943374633789,1.60675156116485
488238.871362144,10.876591899024788,0.000439999801724321,4.39999801724321e-07,0.596305847167968,-1.00935733318328,1.60566318035125
488239.408161747,11.41339150199201,0.000461715630261434,4.61715630261434e-07,0.595293879508972,-1.00937640666961,1.60467028617858
488239.949161347,11.954391102015506,0.000483601468645864,4.836014686458639e-07,0.594281911849975,-1.00935733318328,1.60363924503326
488240.509760931,12.514990686031524,0.000506280328873958,5.06280328873958e-07,0.593269884586334,-1.0092236995697,1.60249358415603
488241.109960477,13.115190231997985,0.000530561056474016,5.305610564740161e-07,0.592219769954681,-1.00905191898345,1.60127168893814
488241.789359979,13.794589733995963,0.000558045809062818,5.58045809062818e-07,0.59120774269104,-1.00897550582885,1.60018324851989
488242.452159479,14.45738923404133,0.000584859083357784,5.84859083357784e-07,0.590195775032043,-1.0090137720108,1.59920954704284
488243.148358952,15.153588707034942,0.000613023585780627,6.13023585780627e-07,0.589183807373046,-1.00888001918792,1.59806382656097
488243.868758417,15.87398817203939,0.000642167339546812,6.42167339546812e-07,0.58817183971405,-1.00874638557434,1.59691822528839
488244.63235786,16.637587614997756,0.00067305831986169,6.7305831986169e-07,0.587102591991424,-1.00878465175628,1.59588724374771
488245.47155723,17.476786985003855,0.000707007471030784,7.07007471030784e-07,0.586071491241455,-1.00868916511535,1.59476065635681
488246.331956584,18.337186339020263,0.000741814492935935,7.418144929359351e-07,0.585059523582458,-1.00859367847442,1.59365320205688
488247.27235588,19.277585635019932,0.000779857287601464,7.79857287601464e-07,0.583990275859832,-1.00851738452911,1.59250766038894
488248.152155229,20.15738498402061,0.000815448519228233,8.15448519228233e-07,0.582978308200836,-1.00834548473358,1.59132379293441
488249.211354435,21.21658419002779,0.000858297807985709,8.58297807985709e-07,0.581966280937194,-1.00834548473358,1.59031176567077
488250.291153643,22.296383398002945,0.000901979681168165,9.019796811681649e-07,0.580877959728241,-1.00826919078826,1.58914715051651
488251.392152816,23.397382571012713,0.000946519805126719,9.46519805126719e-07,0.579846858978271,-1.00824999809265,1.58809685707092
488252.554951944,24.56018169899471,0.000993560210473007,9.935602104730069e-07,0.578834891319274,-1.00819277763366,1.58702766895294
488253.794551029,25.799780784000177,0.00104370730207694,1.0437073020769399e-06,0.57780385017395,-1.00809729099273,1.58590114116668
488255.112950041,27.118179796030745,0.00109704222553057,1.09704222553057e-06,0.576753675937652,-1.00805914402008,1.58481281995773
488256.436549058,28.44177881302312,0.00115058691193411,1.15058691193411e-06,0.575741708278656,-1.00775361061096,1.58349531888961
488257.815348033,29.82057778799208,0.00120636583927356,1.20636583927356e-06,0.574653327465057,-1.00790643692016,1.58255976438522
488259.412546847,31.417776602029335,0.00127097999028033,1.27097999028033e-06,0.57364135980606,-1.00769639015197,1.58133774995803
488260.837345775,32.8425755299977,0.00132862038492742,1.32862038492742e-06,0.572591185569763,-1.0077154636383,1.58030664920806
488262.618344447,34.62357420200715,0.00140066974810096,1.4006697481009601e-06,0.571560084819793,-1.00750541687011,1.57906550168991
488264.31694319,36.322172945016064,0.00146938469587349,1.46938469587349e-06,0.570548117160797,-1.00741004943847,1.57795816659927
488266.04014191,38.04537166503724,0.00153909422374185,1.53909422374185e-06,0.569517076015472,-1.00731456279754,1.57683163881301
488267.876740536,39.88197029102594,0.00161339210611995,1.61339210611995e-06,0.568485975265502,-1.00739097595214,1.57587695121765
488269.875139046,41.880368801008444,0.00169423569469485,1.6942356946948498e-06,0.567454934120178,-1.00712358951568,1.57457852363586
488271.814137603,43.81936735799536,0.00177267598912782,1.77267598912782e-06,0.566442966461181,-1.00716185569763,1.57360482215881
488273.93593602,45.941165775002446,0.00185851096270481,1.85851096270481e-06,0.56543093919754,-1.00693273544311,1.57236367464065
488276.137534383,48.14276413799962,0.00194757366479684,1.94757366479684e-06,0.564418971538543,-1.00700902938842,1.57142800092697
488278.418732684,50.423962439002935,0.00203985624318073,2.03985624318073e-06,0.563407003879547,-1.00681817531585,1.5702251791954
488280.800530903,52.80576065799687,0.00213620920384013,2.13620920384013e-06,0.56239503622055,-1.00660812854766,1.56900316476821
488283.24212908,55.247358835011255,0.00223498131755325,2.23498131755325e-06,0.561363935470581,-1.00679910182952,1.56816303730011
488285.964527056,57.969756811042316,0.00234511204094522,2.34511204094522e-06,0.560332894325256,-1.00656998157501,1.56690287590026
488288.562725123,60.56795487803174,0.00245021768877324,2.45021768877324e-06,0.559301793575286,-1.00653183460235,1.56583362817764
488291.560122888,63.56535264302511,0.00257147293170458,2.57147293170458e-06,0.558232545852661,-1.00643634796142,1.56466889381408
488294.70172055,66.70695030502975,0.00269855838204837,2.69855838204837e-06,0.557163298130035,-1.00628364086151,1.56344693899154
488297.844518208,69.84974796301685,0.00282569380896786,2.82569380896786e-06,0.556151330471038,-1.00630271434783,1.56245404481887
488300.984115868,72.98934562300565,0.00295270174634291,2.95270174634291e-06,0.555139362812042,-1.0062072277069,1.56134659051895
488304.501913248,76.50714300299296,0.00309501012543837,3.09501012543837e-06,0.5541273355484,-1.00603544712066,1.56016278266906
488308.022710617,80.0279403720051,0.00323743935105287,3.23743935105287e-06,0.553115367889404,-1.00590181350708,1.55901718139648
488311.543908003,83.54913775803288,0.00337988560904396,3.37988560904396e-06,0.552103400230407,-1.00586354732513,1.55796694755554
488315.344105169,87.34933492401615,0.00353361900309142,3.5336190030914198e-06,0.55105322599411,-1.00588262081146,1.55693584680557
488319.165302328,91.17053208302241,0.00368820335530655,3.68820335530655e-06,0.550041258335113,-1.0058444738388,1.55588573217392
488323.501299092,95.50652884703595,0.00386361370688428,3.86361370688428e-06,0.548972010612487,-1.00567269325256,1.55464470386505
488327.844495856,99.84972561104223,0.00403931289659771,4.03931289659771e-06,0.547960042953491,-1.00557720661163,1.55353724956512
488332.383292481,104.38852223602589,0.00422292415515747,4.22292415515747e-06,0.546928942203521,-1.00536715984344,1.55229610204696
488336.904089104,108.90931885899045,0.00440580647104895,4.40580647104895e-06,0.545916974544525,-1.00546264648437,1.5513796210289
488341.90268538,113.90791513503063,0.00460802019766883,4.60802019766883e-06,0.544885873794555,-1.00521445274353,1.55010032653808
488346.882681678,118.88791143300477,0.00480948236176371,4.80948236176371e-06,0.543873906135559,-1.00504267215728,1.54891657829284
488351.886877946,123.89210770098725,0.00501191903328233,5.01191903328233e-06,0.542861938476562,-1.00498533248901,1.54784727096557
488357.248673947,129.25390370201785,0.00522882031628572,5.2288203162857205e-06,0.541849970817565,-1.00500440597534,1.5468543767929
488362.788669827,134.79389958200045,0.00545292992297394,5.45292992297394e-06,0.540838003158569,-1.00483262538909,1.54567062854766
488368.566665517,140.57189527200535,0.00568667016562654,5.6866701656265395e-06,0.539825975894928,-1.00469899177551,1.54452496767044
488374.308461235,146.31369099003496,0.00591894541025906,5.91894541025906e-06,0.538794934749603,-1.00458443164825,1.54337936639785
488380.848456367,152.8536861219909,0.00618350875080294,6.18350875080294e-06,0.537763833999633,-1.00446987152099,1.54223370552063
488387.386851497,159.3920812520082,0.00644800945954107,6.448009459541071e-06,0.536713719367981,-1.00445079803466,1.54116451740264
488394.049646526,166.05487628100673,0.00671754080407155,6.7175408040715496e-06,0.535701692104339,-1.00433623790741,1.54003793001174
488400.927841398,172.93307115300559,0.00699578705587486,6.99578705587486e-06,0.534651577472686,-1.00420260429382,1.53885418176651
488408.430835808,180.43606556300074,0.00729930861501064,7.29930861501064e-06,0.533563196659088,-1.0039734840393,1.53753668069839
488416.430429847,188.4356596019934,0.00762292075587064,7.62292075587064e-06,0.532493948936462,-1.00395441055297,1.53644835948944
488424.394223917,196.39945367199834,0.0079450827558885,7.945082755888501e-06,0.531481981277465,-1.00385892391204,1.53534090518951
488432.615617789,204.62084754399257,0.00827766728117151,8.277667281171511e-06,0.530450880527496,-1.00372529029846,1.53417617082595
488440.741411734,212.74664148903685,0.0086063876846234,8.6063876846234e-06,0.529419839382171,-1.00347709655761,1.53289693593978
488449.2426054,221.2478351549944,0.00895029669607596,8.95029669607596e-06,0.528388738632202,-1.0034008026123,1.5317895412445
488458.204598728,230.209828482999,0.00931284465507252,9.31284465507252e-06,0.527376770973205,-1.00338160991668,1.53075838088989
488467.007792178,239.01302193303127,0.00966896907633957,9.66896907633957e-06,0.526364803314209,-1.00322890281677,1.52959370613098
488476.532385075,248.5376148300129,0.0100542746586675,1.0054274658667499e-05,0.525352835655212,-1.00301897525787,1.52837181091308
488486.234777845,258.24000759999035,0.0104467718020826,1.04467718020826e-05,0.524340808391571,-1.00286614894866,1.52720695734024
488496.234970394,268.2402001490118,0.0108513145898721,1.08513145898721e-05,0.523481607437133,-1.00278985500335,1.52627146244049
488504.95876389,276.9639936450403,0.0112042283889634,1.12042283889634e-05,0.522469639778137,-1.00269436836242,1.52516400814056
488514.958956439,286.96418619400356,0.0116087742377486,1.1608774237748601e-05,0.521610379219055,-1.00256073474884,1.52417111396789
488524.725949174,296.73117892903974,0.012003888087333,1.2003888087333e-05,0.520598411560058,-1.00240802764892,1.52300643920898
488534.726141723,306.731371478003,0.0124084388695433,1.2408438869543299e-05,0.519891917705535,-1.00229346752166,1.5221853852272
488544.291734594,316.29696434899233,0.0127954015025422,1.27954015025422e-05,0.518879950046539,-1.00202620029449,1.52090615034103
488554.291927143,326.2971568980138,0.0131999440678904,1.31999440678904e-05,0.518173515796661,-1.00206434726715,1.52023786306381
488563.954919938,335.9601496930118,0.0135908515897749,1.35908515897749e-05,0.51716148853302,-1.00187337398529,1.51903486251831
488573.955112487,345.9603422420332,0.0139953929128034,1.39953929128034e-05,0.516512334346771,-1.00177800655365,1.51829034090042
488583.955305036,355.96053479099646,0.0143999349782872,1.43999349782872e-05,0.51569128036499,-1.00162518024444,1.51731646060943
488593.955497585,365.9607273400179,0.014804481795734,1.4804481795734001e-05,0.514946639537811,-1.00151062011718,1.51645725965499
488603.955690134,375.96091988903936,0.0152090247736813,1.5209024773681299e-05,0.514144659042358,-1.00135791301727,1.51550257205963
488613.955882683,385.9611124380026,0.0156135674052139,1.56135674052139e-05,0.513457298278808,-1.00124335289001,1.51470065116882
488623.403675645,395.40890540002147,0.0159957625855828,1.59957625855828e-05,0.512445330619812,-1.00114798545837,1.51359331607818
488633.403868194,405.4090979489847,0.0164003039273603,1.64003039273603e-05,0.511872470378875,-1.00097608566284,1.51284855604171
488643.404060744,415.4092904989957,0.0168048541219458,1.6804854121945802e-05,0.511280596256256,-1.00101423263549,1.51229482889175
488653.404253293,425.40948304801714,0.0172094047472137,1.72094047472137e-05,0.510535895824432,-1.00084245204925,1.51137834787368
488663.404445842,435.4096755970386,0.0176139570813535,1.76139570813535e-05,0.509829461574554,-1.00067067146301,1.51050013303756
488673.404638392,445.40986814699136,0.0180185034879537,1.80185034879537e-05,0.509065687656402,-1.0005178451538,1.50958353281021
488683.404830941,455.4100606960128,0.0184230526218257,1.84230526218257e-05,0.508645594120025,-1.00026977062225,1.50891536474227
488692.734423991,464.7396537460154,0.0188004726503118,1.88004726503118e-05,0.5076145529747,-1.00044155120849,1.50805610418319
488702.73461654,474.73984629503684,0.0192050175074148,1.92050175074148e-05,0.507309019565582,-1.00026977062225,1.50757879018783
488712.734809089,484.7400388440001,0.0196095627130435,1.96095627130435e-05,0.50683170557022,-0.999906957149505,1.50673866271972
488722.735001638,494.74023139302153,0.0200141051356941,2.0014105135694098e-05,0.506067931652069,-0.999792397022247,1.50586032867431
488732.735194187,504.7404239419848,0.0204186484219332,2.0418648421933202e-05,0.505342364311218,-0.999754190444946,1.50509655475616
488742.735386736,514.7406164910062,0.0208231933062043,2.08231933062043e-05,0.504960477352142,-0.999429643154144,1.50439012050628
488752.735579285,524.7408090400277,0.0212277406614149,2.12277406614149e-05,0.504368603229522,-0.999353289604187,1.50372189283371
488762.169772259,534.1750020140316,0.0216093908938964,2.16093908938964e-05,0.503356575965881,-0.999448716640472,1.50280529260635
488772.169964809,544.1751945640426,0.0220139376467226,2.20139376467226e-05,0.502917468547821,-0.999105095863342,1.50202256441116
488782.170157358,554.1753871130059,0.0224184806699645,2.2418480669964502e-05,0.502497375011444,-0.999066889286041,1.50156426429748
488792.170349907,564.1755796620273,0.0228230306901509,2.28230306901509e-05,0.501924574375152,-0.998971462249755,1.5008960366249
488802.170542456,574.1757722109905,0.0232275752957628,2.32275752957628e-05,0.501351714134216,-0.998952329158783,1.50030404329299
488812.170735005,584.175964760012,0.0236321212071536,2.3632121207153597e-05,0.500702559947967,-0.998895108699798,1.49959766864776
488822.170927554,594.1761573090334,0.0240366645955931,2.40366645955931e-05,0.500034272670745,-0.998704135417938,1.49873840808868
488832.171120103,604.1763498579967,0.0244412116188721,2.44412116188721e-05,0.49957600235939,-0.998646914958953,1.49822291731834
488842.171312652,614.1765424070181,0.024845756100888,2.4845756100888e-05,0.499060451984405,-0.998455941677093,1.49751639366149
488852.171505201,624.1767349560396,0.0252502927008983,2.52502927008983e-05,0.498411267995834,-0.998379588127136,1.49679085612297
488862.17169775,634.1769275050028,0.025654831682759,2.5654831682759e-05,0.497952997684478,-0.99828416109085,1.49623715877533
488872.171890299,644.1771200540243,0.0260593653353411,2.60593653353411e-05,0.497341990470886,-0.998150527477264,1.49549251794815
488882.172082848,654.1773126029875,0.0264638981585105,2.64638981585105e-05,0.496730983257293,-0.998016834259033,1.49474781751632
488892.172275397,664.177505152009,0.0268684368957198,2.6868436895719798e-05,0.496215462684631,-0.998055040836334,1.49427050352096
488902.172467947,674.1776977020199,0.0272729718912947,2.72729718912947e-05,0.495776295661926,-0.99784505367279,1.49362134933471
488912.172660496,684.1778902510414,0.0276775104361615,2.76775104361615e-05,0.495165288448333,-0.997615933418273,1.4927812218666
488922.172853045,694.1780828000046,0.0280820464245279,2.8082046424527898e-05,0.49461156129837,-0.997558653354644,1.49217021465301
488932.173045594,704.1782753490261,0.0284865847908929,2.84865847908929e-05,0.493981480598449,-0.997539579868316,1.49152106046676
488942.173238143,714.1784678979893,0.0288911261613816,2.88911261613816e-05,0.49392420053482,-0.996890425682067,1.49081462621688
488952.173430692,724.1786604470108,0.0292956702891124,2.92956702891124e-05,0.493255913257598,-0.996833145618438,1.49008905887603
488962.173623241,734.1788529960322,0.0297002140130541,2.9700214013054098e-05,0.492759466171264,-0.996775925159454,1.48953539133071
488972.17381579,744.1790455449955,0.0301047593385958,3.0104759338595798e-05,0.492167532444,-0.996642231941223,1.48880976438522
488982.174008339,754.1792380940169,0.0305093042198245,3.05093042198245e-05,0.491728395223617,-0.996451318264007,1.48817971348762
488992.174200888,764.1794306430384,0.030913846629007,3.0913846629007e-05,0.491193741559982,-0.996355891227722,1.4875496327877
489002.174393437,774.1796231920016,0.0313183887527717,3.13183887527717e-05,0.490659117698669,-0.996260404586792,1.48691952228546
489012.174585986,784.179815741023,0.0317229313987477,3.17229313987477e-05,0.490124493837356,-0.996107697486877,1.48623219132423
489022.174778536,794.180008291034,0.0321274765102987,3.21274765102987e-05,0.489685326814651,-0.99603134393692,1.48571667075157
489032.174971085,804.1802008399973,0.032532020149048,3.2532020149048e-05,0.48911252617836,-0.995993137359619,1.48510566353797
489042.175163634,814.1803933890187,0.0329365632847001,3.29365632847001e-05,0.488635182380676,-0.99593585729599,1.48457103967666
489052.175356183,824.1805859380402,0.0333411050739859,3.3341105073985894e-05,0.488081455230712,-0.995744943618774,1.48382639884948
489062.175548732,834.1807784870034,0.0337456474615708,3.37456474615708e-05,0.487508624792099,-0.995687663555145,1.48319628834724
489072.175741281,844.1809710360249,0.0341501915966082,3.41501915966082e-05,0.487012177705764,-0.995477676391601,1.48248985409736
489082.17593383,854.1811635849881,0.0345547326434503,3.45547326434503e-05,0.486420273780822,-0.995630383491516,1.48205065727233
489092.176126379,864.1813561340095,0.0349592741931693,3.49592741931693e-05,0.485885649919509,-0.995611310005188,1.48149695992469
489102.176318928,874.181548683031,0.0353638193285076,3.53638193285076e-05,0.485370099544525,-0.995324909687042,1.48069500923156
489112.176511477,884.1817412319942,0.0357683657358636,3.5768365735863605e-05,0.484663635492324,-0.995344042778015,1.48000767827034
489122.176704026,894.1819337810157,0.0361729119078699,3.61729119078699e-05,0.484109908342361,-0.995401322841644,1.479511231184
489132.176896575,904.1821263300371,0.0365774580479984,3.6577458047998394e-05,0.483556181192398,-0.995248556137085,1.47880473732948
489142.177089124,914.1823188790004,0.0369820104157908,3.69820104157908e-05,0.483002454042434,-0.995229482650756,1.47823193669319
489152.177281674,924.1825114290114,0.0373865568741253,3.73865568741253e-05,0.482372373342514,-0.995172202587127,1.47754457592964
489162.177474223,934.1827039780328,0.0377910985506235,3.77910985506235e-05,0.481933206319809,-0.995114922523498,1.4770481288433
489172.177666772,944.182896526996,0.0381956383034653,3.8195638303465296e-05,0.481303095817565,-0.994847655296325,1.47615075111389
489182.177859321,954.1830890760175,0.0386001796106555,3.8600179610655494e-05,0.480787575244903,-0.994962215423584,1.47574979066848
489192.17805187,964.183281625039,0.0390047218517735,3.90047218517735e-05,0.480310201644897,-0.994790375232696,1.47510057687759
489202.178244419,974.1834741740022,0.0394092628739286,3.94092628739286e-05,0.479756504297256,-0.994733095169067,1.47448959946632
489212.178436968,984.1836667230236,0.0398138054454202,3.98138054454202e-05,0.479145497083663,-0.99465674161911,1.47380223870277
489222.178629517,994.1838592719869,0.0402183439463931,4.02183439463931e-05,0.47849628329277,-0.99465674161911,1.47315302491188
489232.178822066,1004.1840518210083,0.0406228837294106,4.06228837294106e-05,0.477866202592849,-0.994561254978179,1.47242745757103
489242.179014615,1014.1842443700298,0.04102742572559,4.102742572559e-05,0.477369755506515,-0.994465827941894,1.47183558344841
489252.179207164,1024.184436918993,0.0414319718638551,4.1431971863855096e-05,0.476873308420181,-0.994332134723663,1.47120544314384
489262.179399713,1034.1846294680145,0.0418365213087996,4.18365213087996e-05,0.476205021142959,-0.994236707687377,1.47044172883033
489272.179592263,1044.1848220180254,0.0422410678067563,4.22410678067563e-05,0.475651293992996,-0.994198501110076,1.46984979510307
489282.179784812,1054.1850145669887,0.0426456158765206,4.2645615876520595e-05,0.474887549877166,-0.994255781173706,1.46914333105087
489292.179977362,1064.1852071169997,0.0430501651645485,4.3050165164548504e-05,0.474238336086273,-0.994313061237335,1.4685513973236
489302.180169911,1074.185399666021,0.0434547145823612,4.34547145823612e-05,0.47372281551361,-0.994141221046447,1.46786403656005
489312.180362461,1084.185592216032,0.0438592616529589,4.38592616529589e-05,0.473245471715927,-0.993969440460205,1.46721491217613
489321.996955151,1094.002184905985,0.0442563813632875,4.4256381363287505e-05,0.472233474254608,-0.994179427623748,1.46641290187835
489331.9971477,1104.0023774550064,0.0446609258095928,4.4660925809592796e-05,0.471679747104644,-0.993988513946533,1.46566826105117
489341.99734025,1114.0025700050173,0.0450654711547982,4.5065471154798197e-05,0.471164226531982,-0.993740320205688,1.46490454673767
489351.997532799,1124.0027625540388,0.0454700132029892,4.54700132029892e-05,0.470515042543411,-0.993759393692016,1.46427443623542
489361.997725348,1134.002955103002,0.0458745568000599,4.58745568000599e-05,0.469827651977539,-0.993740320205688,1.46356797218322
489371.997917898,1144.003147653013,0.04627910216378,4.627910216378e-05,0.469159364700317,-0.993778526782989,1.4629378914833
489381.998110447,1154.0033402020345,0.0466836499877936,4.6683649987793596e-05,0.468452900648117,-0.993663966655731,1.46211686730384
489391.998302996,1164.0035327509977,0.0470881971760839,4.7088197176083905e-05,0.467689126729965,-0.993759393692016,1.46144852042198
489401.998495546,1174.0037253010087,0.047492737532537,4.7492737532537e-05,0.466963559389114,-0.993663966655731,1.46062752604484
489411.998688095,1184.0039178500301,0.0478972774867092,4.78972774867092e-05,0.466237992048263,-0.993492126464843,1.4597301185131
489421.998880645,1194.004110400041,0.048301815653916,4.8301815653916e-05,0.465550601482391,-0.993415772914886,1.45896637439727
489431.999073194,1204.0043029490043,0.0487063482592387,4.8706348259238705e-05,0.464882314205169,-0.993358492851257,1.45824080705642
489441.707065958,1213.7122957130196,0.0490990639258797,4.90990639258797e-05,0.463832169771194,-0.993358492851257,1.45719066262245
489451.707258507,1223.712488262041,0.0495036035339228,4.95036035339228e-05,0.463144779205322,-0.993339419364929,1.45648419857025
489461.707451056,1233.7126808110042,0.0499081505504457,4.99081505504457e-05,0.462495595216751,-0.9932821393013,1.45577773451805
489471.707643605,1243.7128733600257,0.0503126939101848,5.03126939101848e-05,0.461827307939529,-0.99322485923767,1.4550521671772
489479.999437431,1252.0046671860036,0.0506481269236505,5.06481269236505e-05,0.46081531047821,-0.993110299110412,1.45392560958862
489480.558837013,1252.5640667680418,0.0506707574084906,5.06707574084906e-05,0.461960941553115,-0.993091225624084,1.4550521671772
489480.559437013,1252.564666768012,0.0506707816776815,5.06707816776815e-05,0.460948973894119,-0.993243932723999,1.45419290661811
489490.559629562,1262.5648593170336,0.0510753273083923,5.10753273083923e-05,0.46003246307373,-0.993091225624084,1.45312368869781
489500.559822111,1272.5650518659968,0.0514798711762635,5.14798711762635e-05,0.459478735923767,-0.992957532405853,1.45243626832962
489506.834017433,1278.839247188007,0.0517336801041265,5.17336801041265e-05,0.45844766497612,-0.993053019046783,1.4515006840229
489516.834209982,1288.8394397370284,0.052138224047073,5.2138224047073e-05,0.457989424467086,-0.992938458919525,1.45092788338661
489525.173203773,1297.1784335279954,0.052475566825134,5.2475566825134e-05,0.456958353519439,-0.992938458919525,1.44989681243896
489535.173396322,1307.1786260770168,0.0528801131668182,5.28801131668182e-05,0.456328243017196,-0.992881178855896,1.44920942187309
489542.915190562,1314.9204203170375,0.0531932972628896,5.31932972628896e-05,0.4553162753582,-0.992823898792266,1.44814017415046
489552.915383111,1324.9206128660007,0.053597847774489,5.3597847774489e-05,0.454590708017349,-0.992881178855896,1.44747188687324
489560.651977338,1332.657207093027,0.0539108276898182,5.39108276898182e-05,0.453540533781051,-0.992823898792266,1.44636443257331
489570.652169888,1342.657399643038,0.0543153805034011,5.43153805034011e-05,0.452776759862899,-0.992728471755981,1.44550523161888
489578.347564159,1350.352793914033,0.0546266932661541,5.46266932661541e-05,0.451726615428924,-0.992728471755981,1.4444550871849
489587.42495739,1359.4301871450152,0.0549939149650716,5.49939149650716e-05,0.450714617967605,-0.992632985115051,1.44334760308265
489597.288350051,1369.2935798059916,0.055392934902639,5.5392934902639e-05,0.449702650308609,-0.992709338665008,1.44241198897361
489606.345143298,1378.350373052992,0.0557593207967852,5.57593207967852e-05,0.448690682649612,-0.992556631565094,1.4412473142147
489614.985336858,1386.9905666130362,0.0561088504333844,5.61088504333844e-05,0.447640508413314,-0.992518424987793,1.4401589334011
489623.999930143,1396.0051598980208,0.0564735265302749,5.6473526530274905e-05,0.446628540754318,-0.992442071437835,1.43907061219215
489632.143124073,1404.1483538280008,0.0568029511708551,5.68029511708551e-05,0.445616543292999,-0.992575705051422,1.43819224834442
489640.263918027,1412.2691477820044,0.0571314696722477,5.71314696722477e-05,0.444566369056701,-0.992384791374206,1.4369511604309
489648.157512145,1420.1627419000142,0.0574507958019218,5.74507958019218e-05,0.443516224622726,-0.992403924465179,1.4359201490879
489655.581506609,1427.586736363999,0.0577511230998486,5.77511230998486e-05,0.442485153675079,-0.992384791374206,1.43486994504928
489663.338100829,1435.3433305840008,0.0580649062389102,5.80649062389102e-05,0.441454082727432,-0.99234664440155,1.43380072712898
489670.500895497,1442.5061252519954,0.0583546647710659,5.8354664771065897e-05,0.440442085266113,-0.992289364337921,1.43273144960403
489677.317890422,1449.323120177025,0.0586304373698822,5.86304373698822e-05,0.439430117607116,-0.992212951183319,1.43164306879043
489683.854285553,1455.859515307995,0.0588948584819403,5.88948584819403e-05,0.438379943370819,-0.992270231246948,1.43065017461776
489690.473880619,1462.479110373999,0.0591626442457893,5.91626442457893e-05,0.437367975711822,-0.992155730724334,1.42952370643615
489696.468676149,1468.4739059039857,0.0594051544504695,5.9405154450469495e-05,0.436317801475524,-0.992193877696991,1.42851167917251
489702.666871536,1474.672101291013,0.059655893021413,5.9655893021413e-05,0.435305833816528,-0.99225115776062,1.42755699157714
489708.625667092,1480.6308968469966,0.0598969475395944,5.9896947539594405e-05,0.43425565958023,-0.992212951183319,1.42646861076355
489713.9838631,1485.9890928550158,0.0601137054863249,6.01137054863249e-05,0.433243691921234,-0.992174804210662,1.42541849613189
489719.841858733,1491.8470884879935,0.0603506833641057,6.0350683364105696e-05,0.432231694459915,-0.992079317569732,1.42431101202964
489725.257054707,1497.262284461991,0.0605697499150029,6.05697499150029e-05,0.431219726800918,-0.992117524147033,1.42333725094795
489730.116851072,1502.1220808270155,0.0607663486156281,6.07663486156281e-05,0.430188655853271,-0.992155730724334,1.4223443865776
489735.293447226,1507.2986769810086,0.0609757630423754,6.09757630423754e-05,0.429176688194274,-0.992193877696991,1.42137056589126
489739.911043786,1511.9162735409918,0.0611625625068644,6.11625625068644e-05,0.428145617246627,-0.992041170597076,1.4201867878437
489744.690240223,1516.6954699780326,0.0613559027628021,6.13559027628021e-05,0.427133619785308,-0.992117524147033,1.41925114393234
489749.150636894,1521.1558666490018,0.0615363453071531,6.15363453071531e-05,0.426083475351333,-0.992079317569732,1.41816279292106
489753.610033575,1525.6152633299935,0.0617167464869138,6.171674648691379e-05,0.425071477890014,-0.992060244083404,1.41713172197341
489757.391830757,1529.3970605120412,0.0618697339917255,6.18697339917255e-05,0.424059510231018,-0.992022037506103,1.41608154773712
489761.82962745,1533.8348572049872,0.0620492609555274,6.20492609555274e-05,0.423047512769699,-0.991964817047119,1.41501232981681
489765.730624549,1537.7358543039882,0.0622070721866232,6.22070721866232e-05,0.421959161758422,-0.991964817047119,1.41392397880554
489769.872221458,1541.8774512130185,0.0623746162642033,6.237461626420329e-05,0.420947194099426,-0.991926610469818,1.41287380456924
489773.508618757,1545.513848512026,0.0625217237207409,6.25217237207409e-05,0.419935226440429,-0.991964817047119,1.41190004348754
489777.127416055,1549.132645810023,0.0626681183443582,6.26681183443582e-05,0.41892322897911,-0.991945683956146,1.41086891293525
489780.49201354,1552.4972432950162,0.0628042279871156,6.28042279871156e-05,0.417911261320114,-0.991869330406189,1.4097805917263
489783.85221105,1555.8574408050044,0.0629401606151735,6.294016061517351e-05,0.416899293661117,-0.991945683956146,1.40884497761726
489786.853808812,1558.8590385669959,0.0630615885378826,6.30615885378826e-05,0.415887296199798,-0.991869330406189,1.40775662660598
489790.093806393,1562.0990361479926,0.0631926603516365,6.319266035163649e-05,0.414875328540802,-0.992022037506103,1.4068973660469
489792.83160435,1564.8368341050227,0.0633034176337984,6.330341763379841e-05,0.413863360881805,-0.991926610469818,1.40578997135162
489795.869602086,1567.8748318410362,0.0634263180223455,6.342631802234549e-05,0.412832260131835,-0.99185025691986,1.40468251705169
489798.629400036,1570.6346297910204,0.0635379637474898,6.35379637474898e-05,0.411820292472839,-0.991888403892517,1.40370869636535
489801.391797974,1573.397027729021,0.0636497140042947,6.36497140042947e-05,0.410808324813842,-0.99185025691986,1.4026585817337
489803.769196201,1575.7744259560131,0.0637458895624214,6.37458895624214e-05,0.409796327352523,-0.991831123828887,1.40162745118141
489806.471394192,1578.4766239470337,0.0638552052175328,6.385520521753279e-05,0.408746182918548,-0.991792976856231,1.40053915977478
489809.087592237,1581.0928219920024,0.063961041749681,6.396104174968099e-05,0.407715111970901,-0.991792976856231,1.39950808882713
489811.449790485,1583.4550202400424,0.064056603243404,6.4056603243404e-05,0.406664937734603,-0.99185025691986,1.39851519465446
489813.752388768,1585.7576185230282,0.0641497533506718,6.41497533506718e-05,0.405652970075607,-0.991773843765258,1.39742681384086
489815.929587137,1587.934816892026,0.0642378316827897,6.42378316827897e-05,0.404640972614288,-0.991735696792602,1.39637666940689
489818.149985484,1590.155215239036,0.0643276569844302,6.43276569844302e-05,0.40359079837799,-0.99175477027893,1.39534556865692
489820.311583878,1592.3168136330205,0.0644151030702674,6.441510307026741e-05,0.402521550655365,-0.991831123828887,1.39435267448425
489822.309182389,1594.3144121440127,0.0644959131252592,6.449591312525919e-05,0.401509582996368,-0.991926610469818,1.39343619346618
489824.229980964,1596.2352107189945,0.0645736163098373,6.457361630983729e-05,0.40045940876007,-0.99185025691986,1.39230966567993
489826.230579473,1598.2358092280338,0.0646545492575367,6.46545492575367e-05,0.399409234523773,-0.99175477027893,1.3911640048027
489827.968978174,1599.9742079289863,0.0647248750615964,6.47248750615964e-05,0.398359090089798,-0.991792976856231,1.39015206694603
489829.770376827,1601.7756065819995,0.0647977497190179,6.47977497190179e-05,0.397347092628479,-0.99185025691986,1.38919734954834
489831.466775566,1603.472005321004,0.0648663761671119,6.48663761671119e-05,0.396335124969482,-0.991773843765258,1.38810896873474
489833.110974341,1605.1162040960044,0.0649328912931308,6.49328912931308e-05,0.395323127508163,-0.991773843765258,1.38709697127342
489834.628573213,1606.6338029680192,0.0649942851573808,6.49942851573808e-05,0.394311159849166,-0.991831123828887,1.38614228367805
489836.144372079,1608.1496018340113,0.0650556064014278,6.505560640142779e-05,0.39329919219017,-0.991697490215301,1.38499668240547
489837.605970997,1609.6112007520278,0.0651147344767882,6.51147344767882e-05,0.392268121242523,-0.991735696792602,1.38400381803512
489839.045369923,1611.050599678012,0.0651729655953786,6.51729655953786e-05,0.391217947006225,-0.991773843765258,1.38299179077148
489840.406768907,1612.4119986619917,0.0652280397064735,6.522803970647351e-05,0.390167772769928,-0.991716623306274,1.3818843960762
489841.805167859,1613.8103976140264,0.0652846112876145,6.528461128761449e-05,0.389117628335952,-0.991812050342559,1.38092967867851
489843.206166818,1615.211396572995,0.0653412871614289,6.53412871614289e-05,0.388105630874633,-0.991735696792602,1.37984132766723
489844.363765955,1616.368995709985,0.0653881170804741,6.538811708047409e-05,0.387093663215637,-0.991640210151672,1.37873387336731
489845.564765066,1617.5699948210386,0.0654367026697712,6.543670266977119e-05,0.38606259226799,-0.991735696792602,1.37779828906059
489846.762164175,1618.7673939300003,0.0654851428016639,6.54851428016639e-05,0.385050594806671,-0.991773843765258,1.37682443857193
489847.863163348,1619.86839310301,0.0655296831667307,6.552968316673071e-05,0.384019523859024,-0.991716623306274,1.37573614716529
489848.904162574,1620.909392328991,0.0655717965175807,6.55717965175807e-05,0.383007556200027,-0.991773843765258,1.37478139996528
489849.944761807,1621.9499915619963,0.0656138936374924,6.56138936374924e-05,0.38199558854103,-0.991716623306274,1.3737122118473
489851.020960994,1623.0261907490203,0.0656574311926547,6.56574311926547e-05,0.380983591079711,-0.991582930088043,1.37256652116775
489851.942960316,1623.948190071038,0.0656947301169013,6.56947301169013e-05,0.379971623420715,-0.99175477027893,1.37172639369964
489852.939159571,1624.9443893260323,0.0657350311971795,6.573503119717949e-05,0.378921449184417,-0.991773843765258,1.37069529294967
489853.882558873,1625.8877886279952,0.0657731965593124,6.57731965593124e-05,0.377871304750442,-0.99175477027893,1.36962607502937
489854.783558197,1626.7887879520422,0.0658096461410464,6.58096461410464e-05,0.376840233802795,-0.991659343242645,1.36849957704544
489855.640557557,1627.645787312009,0.0658443155966492,6.58443155966492e-05,0.375809133052825,-0.991582930088043,1.36739206314086
489856.480156935,1628.4853866900085,0.0658782809674922,6.58782809674922e-05,0.374778062105178,-0.991659343242645,1.36643740534782
489857.30495631,1629.310186065035,0.0659116481601132,6.59116481601132e-05,0.373708814382553,-0.991659343242645,1.36536815762519
489858.063755753,1630.0689855079981,0.0659423449748547,6.59423449748547e-05,0.372696846723556,-0.991735696792602,1.36443254351615
489858.802755195,1630.807984950021,0.0659722408706123,6.59722408706123e-05,0.371684849262237,-0.991716623306274,1.36340147256851
489859.523354657,1631.528584412008,0.0660013920502547,6.60013920502547e-05,0.370672881603241,-0.991697490215301,1.36237037181854
489860.262354116,1632.2675838710275,0.0660312875705386,6.60312875705386e-05,0.369660913944244,-0.991697490215301,1.36135840415954
489860.898753632,1632.9039833869901,0.0660570325341365,6.60570325341365e-05,0.368629842996597,-0.991640210151672,1.36027005314827
489861.58015313,1633.5853828850086,0.0660845980469559,6.608459804695591e-05,0.367617845535278,-0.991678416728973,1.35929626226425
489862.203552667,1634.208782422007,0.0661098168611088,6.61098168611088e-05,0.366567701101303,-0.991621136665344,1.35818883776664
489862.801552217,1634.8067819720018,0.0661340080803094,6.613400808030941e-05,0.365555703639984,-0.991563856601715,1.35711956024169
489863.360951803,1635.366181557998,0.066156638050725,6.6156638050725e-05,0.364524632692337,-0.991831123828887,1.35635575652122
489863.982751343,1635.9879810980055,0.0661817922991555,6.618179229915549e-05,0.363493561744689,-0.991659343242645,1.35515290498733
489864.56275091,1636.567980665015,0.0662052556636077,6.62052556636077e-05,0.362462490797042,-0.991735696792602,1.35419818758964
489865.12255049,1637.127780245035,0.0662279018572204,6.62279018572204e-05,0.361450523138046,-0.991735696792602,1.35318621993064
489865.60315014,1637.6083798950422,0.0662473440452549,6.62473440452549e-05,0.360438525676727,-0.991621136665344,1.35205966234207
489866.123349745,1638.128579500015,0.0662683881087924,6.62683881087924e-05,0.35942655801773,-0.991621136665344,1.35104769468307
489866.602549396,1638.6077791510033,0.0662877740069412,6.62877740069412e-05,0.358414590358734,-0.991621136665344,1.35003572702407
489867.062549047,1639.0677788020112,0.0663063832064908,6.630638320649079e-05,0.357383519411087,-0.991602063179016,1.3489855825901
489867.539948698,1639.5451784530305,0.0663256962451098,6.63256962451098e-05,0.356371521949768,-0.991621136665344,1.34799265861511
489867.963948372,1639.9691781270085,0.0663428490711782,6.63428490711782e-05,0.355340451002121,-0.991621136665344,1.34696158766746
489868.400948046,1640.4061778010218,0.0663605280074767,6.63605280074767e-05,0.354328483343124,-0.991602063179016,1.34593054652214
489868.804947742,1640.8101774970419,0.0663768716366183,6.63768716366183e-05,0.353316485881805,-0.991621136665344,1.34493762254715
489869.22074744,1641.2259771950194,0.0663936926417384,6.63936926417384e-05,0.35226634144783,-0.991640210151672,1.3439065515995
489869.622747137,1641.6279768919921,0.0664099557513627,6.64099557513627e-05,0.351254343986511,-0.991678416728973,1.34293276071548
489869.982746873,1641.9879766280064,0.0664245196110548,6.64245196110548e-05,0.350242376327514,-0.991621136665344,1.34186351299285
489870.363346584,1642.3685763390386,0.0664399167017713,6.64399167017713e-05,0.349230408668518,-0.991602063179016,1.34083247184753
489870.70574633,1642.7109760849853,0.0664537685462807,6.64537685462807e-05,0.348218411207199,-0.991735696792602,1.3399541079998
489871.065346066,1643.0705758210388,0.0664683160074104,6.64683160074104e-05,0.347187340259552,-0.991659343242645,1.33884668350219
489871.383145835,1643.3883755900315,0.0664811725697368,6.648117256973681e-05,0.346156269311904,-0.991659343242645,1.33781561255455
489871.720145578,1643.725375332986,0.0664948056291383,6.64948056291383e-05,0.345144301652908,-0.991621136665344,1.33676543831825
489872.040745344,1644.0459750990267,0.0665077752467427,6.65077752467427e-05,0.344132333993911,-0.991544783115387,1.33567711710929
489872.342345112,1644.347574867017,0.0665199762124659,6.65199762124659e-05,0.343120336532592,-0.991697490215301,1.33481782674789
489872.625544902,1644.6307746570092,0.0665314328357784,6.653143283577841e-05,0.342089265584945,-0.991640210151672,1.33372947573661
489872.93934467,1644.944574424997,0.0665441274077577,6.65441274077577e-05,0.341077297925949,-0.991582930088043,1.33266022801399
489873.200344476,1645.2055742309894,0.0665546860172674,6.65546860172674e-05,0.34006530046463,-0.991678416728973,1.3317437171936
489873.460744272,1645.465974027,0.0665652204477423,6.656522044774229e-05,0.339034229516983,-0.991678416728973,1.33071264624595
489873.741544064,1645.7467738190317,0.0665765800123256,6.65765800123256e-05,0.338003158569335,-0.991678416728973,1.3296815752983
489873.998943878,1646.0041736330022,0.0665869929639043,6.65869929639043e-05,0.336972087621688,-0.991582930088043,1.32855501770973
489874.223143714,1646.2283734690282,0.066596062817196,6.659606281719601e-05,0.335960119962692,-0.991735696792602,1.32769581675529
489874.46514353,1646.470373285003,0.0666058529013735,6.66058529013735e-05,0.334948152303695,-0.991582930088043,1.32653108239173
489874.706943348,1646.7121731030056,0.0666156349246907,6.66156349246907e-05,0.333936154842376,-0.991525650024414,1.32546180486679
489874.940343179,1646.945572933997,0.0666250774282217,6.66250774282217e-05,0.332905083894729,-0.991525650024414,1.32443073391914
489875.160543016,1647.1657727709971,0.0666339857316671,6.663398573166709e-05,0.331797629594802,-0.991525650024414,1.32332327961921
489875.381742854,1647.3869726090343,0.0666429343892485,6.66429343892485e-05,0.330766558647155,-0.991640210151672,1.32240676879882
489875.599542691,1647.6047724460368,0.0666517453681098,6.66517453681098e-05,0.329735487699508,-0.991487503051757,1.32122299075126
489875.803142529,1647.8083722839947,0.0666599819638646,6.66599819638646e-05,0.328723520040512,-0.991640210151672,1.32036373019218
489875.982942402,1647.9881721570273,0.066667255628676,6.6667255628676e-05,0.327654272317886,-0.991602063179016,1.3192563354969
489876.183742249,1648.1889720039908,0.0666753789425136,6.66753789425136e-05,0.326642274856567,-0.991506576538085,1.31814885139465
489876.362942114,1648.3681718690204,0.0666826283041975,6.66826283041975e-05,0.325553923845291,-0.991640210151672,1.31719413399696
489876.561941969,1648.5671717239893,0.0666906785756937,6.669067857569371e-05,0.324541956186294,-0.991773843765258,1.31631579995155
489876.726941853,1648.7321716080187,0.066697353549675,6.6697353549675e-05,0.323529958724975,-0.991678416728973,1.31520837545394
489876.902741713,1648.9079714679974,0.0667044654263705,6.67044654263705e-05,0.322498887777328,-0.991602063179016,1.31410095095634
489877.062541596,1649.067771351023,0.0667109299985361,6.67109299985361e-05,0.321486920118331,-0.991716623306274,1.3132035434246
489877.225341481,1649.2305712359957,0.0667175159138325,6.671751591383251e-05,0.320474952459335,-0.991640210151672,1.312115162611
489877.382541365,1649.387771120004,0.0667238754604376,6.67238754604376e-05,0.319443881511688,-0.991544783115387,1.31098866462707
489877.540141247,1649.5453710019938,0.0667302512977446,6.67302512977446e-05,0.318431884050369,-0.991506576538085,1.30993846058845
489877.682741131,1649.687970886007,0.0667360202412357,6.673602024123571e-05,0.317400813102722,-0.991602063179016,1.30900287628173
489877.821741037,1649.8269707920263,0.0667416435282313,6.674164352823129e-05,0.316369742155075,-0.991544783115387,1.30791452527046
489877.964940922,1649.9701706769993,0.0667474366772862,6.674743667728621e-05,0.315357774496078,-0.991621136665344,1.30697891116142
489878.104540824,1650.1097705790307,0.0667530841829114,6.67530841829114e-05,0.31430760025978,-0.991659343242645,1.30596694350242
489878.24294071,1650.248170464998,0.0667586830377264,6.675868303772641e-05,0.313295632600784,-0.991582930088043,1.30487856268882
489878.362140625,1650.3673703800305,0.0667635053169661,6.676350531696611e-05,0.312283635139465,-0.991563856601715,1.30384749174118
489878.501340525,1650.5065702800057,0.0667691366676365,6.676913666763649e-05,0.311252564191818,-0.991506576538085,1.3027591407299
489878.621140433,1650.6263701880234,0.0667739829880322,6.677398298803219e-05,0.310240596532821,-0.991544783115387,1.3017853796482
489878.724940363,1650.7301701180404,0.0667781820222851,6.677818202228509e-05,0.309209525585174,-0.991525650024414,1.30073517560958
489878.857540261,1650.862770016014,0.0667835462205973,6.67835462205973e-05,0.308178454637527,-0.991563856601715,1.29974231123924
489878.972340175,1650.9775699300226,0.0667881903481814,6.67881903481814e-05,0.30714738368988,-0.991468429565429,1.29861581325531
489879.084340084,1651.0895698390086,0.0667927211768635,6.67927211768635e-05,0.306135416030883,-0.991640210151672,1.29777562618255
489879.185940013,1651.1911697679898,0.0667968312726302,6.67968312726302e-05,0.305123418569564,-0.991525650024414,1.29664906859397
489879.300539925,1651.3057696800097,0.0668014672286966,6.680146722869661e-05,0.304092347621917,-0.991544783115387,1.2956371307373
489879.402539851,1651.4077696060413,0.0668055934136667,6.68055934136667e-05,0.30306127667427,-0.991525650024414,1.29458692669868
489879.503539779,1651.5087695340044,0.0668096792091396,6.68096792091396e-05,0.302030205726623,-0.991582930088043,1.29361313581466
489879.604139708,1651.6093694629963,0.0668137489864983,6.681374898649831e-05,0.300960958003997,-0.991659343242645,1.29262030124664
489879.704939626,1651.7101693809964,0.0668178267635397,6.68178267635397e-05,0.299891680479049,-0.991544783115387,1.29143646359443
489879.803539548,1651.8087693030247,0.0668218156247329,6.68218156247329e-05,0.298822432756424,-0.991506576538085,1.29032900929451
489879.903339478,1651.9085692330264,0.0668258530377307,6.68258530377307e-05,0.297791361808776,-0.991468429565429,1.2892597913742
489879.987539414,1651.992769169039,0.0668292594789863,6.682925947898629e-05,0.296722084283828,-0.991563856601715,1.28828594088554
489880.081739343,1652.086969098018,0.0668330704190168,6.68330704190168e-05,0.295691013336181,-0.991582930088043,1.28727394342422
489880.167339287,1652.1725690420135,0.0668365334895609,6.68365334895609e-05,0.294640868902206,-0.991602063179016,1.28624293208122
489880.257539222,1652.2627689770306,0.0668401825276299,6.68401825276299e-05,0.293628871440887,-0.991430222988128,1.28505909442901
489880.339939153,1652.3451689080102,0.0668435160941448,6.68435160941448e-05,0.292578727006912,-0.991544783115387,1.28412351012229
489880.422539092,1652.427768847032,0.0668468576571668,6.68468576571668e-05,0.291547656059265,-0.991506576538085,1.28305423259735
489880.501739035,1652.506968790025,0.0668500616747422,6.685006167474219e-05,0.290516585111618,-0.991640210151672,1.28215679526329
489880.582538969,1652.5877687240136,0.0668533304294861,6.68533304294861e-05,0.289485484361648,-0.991563856601715,1.28104934096336
489880.660738918,1652.6659686730127,0.0668564939847365,6.685649398473651e-05,0.288435339927673,-0.9914111495018,1.27984648942947
489880.725738873,1652.7309686280205,0.0668591235163203,6.68591235163203e-05,0.287423342466354,-0.991582930088043,1.27900627255439
489880.803338803,1652.8085685580154,0.0668622628465742,6.68622628465742e-05,0.286373198032379,-0.991602063179016,1.27797526121139
489880.881738756,1652.8869685110403,0.0668654344704557,6.68654344704557e-05,0.285342127084732,-0.991544783115387,1.27688691020011
489880.94553871,1652.9507684650016,0.066868015429361,6.686801542936099e-05,0.284272849559783,-0.991544783115387,1.27581763267517
489881.021538641,1653.0267683960265,0.0668710899234646,6.687108992346461e-05,0.283203601837158,-0.9914111495018,1.27461475133895
489881.085538592,1653.0907683470286,0.0668736790015656,6.68736790015656e-05,0.28215342760086,-0.991582930088043,1.2737363576889
489881.161338546,1653.166568301036,0.0668767454210156,6.68767454210156e-05,0.281141459941864,-0.991602063179016,1.27274352312088
489881.222338499,1653.2275682539912,0.0668792131082622,6.687921310826219e-05,0.280129462480545,-0.991487503051757,1.2716169655323
489881.284138453,1653.289368208032,0.0668817131262537,6.68817131262537e-05,0.279060214757919,-0.991544783115387,1.2706049978733
489881.344938407,1653.3501681620255,0.0668841726985425,6.68841726985425e-05,0.278029143810272,-0.991525650024414,1.26955479383468
489881.418738354,1653.4239681090112,0.0668871582057211,6.688715820572109e-05,0.277017176151275,-0.991487503051757,1.26850467920303
489881.466138314,1653.4713680690038,0.0668890756291416,6.688907562914161e-05,0.276005178689956,-0.991506576538085,1.26751175522804
489881.525738267,1653.530968022009,0.0668914866549199,6.68914866549199e-05,0.27499321103096,-0.991678416728973,1.26667162775993
489881.583338223,1653.588567978004,0.0668938167631212,6.68938167631212e-05,0.273981243371963,-0.991640210151672,1.26562145352363
489881.642738182,1653.647967936995,0.066896219691279,6.6896219691279e-05,0.272969245910644,-0.991525650024414,1.26449489593505
489881.701338142,1653.7065678969957,0.0668985902529657,6.68985902529657e-05,0.271957278251647,-0.991468429565429,1.26342570781707
489881.758138105,1653.763367859996,0.0669008879342493,6.69008879342493e-05,0.270945280790329,-0.991353869438171,1.2622991502285
489881.804738056,1653.8099678109866,0.0669027730481227,6.69027730481227e-05,0.269933313131332,-0.991487503051757,1.26142081618309
489881.863738015,1653.8689677700168,0.0669051598425433,6.69051598425433e-05,0.268825858831405,-0.991525650024414,1.26035150885582
489881.921337977,1653.9265677320072,0.0669074899928131,6.690748999281309e-05,0.267813891172409,-0.991525650024414,1.25933954119682
489881.97153794,1653.976767694985,0.066909520735273,6.6909520735273e-05,0.266801923513412,-0.991449296474456,1.25825121998786
489882.020737897,1654.0259676520363,0.0669115110755141,6.69115110755141e-05,0.265789926052093,-0.991468429565429,1.25725835561752
489882.07793786,1654.0831676149974,0.06691382506377,6.691382506377e-05,0.264758855104446,-0.991353869438171,1.25611272454261
489882.123337824,1654.1285675790277,0.0669156616668354,6.69156616668354e-05,0.26367050409317,-0.991582930088043,1.25525343418121
489882.178937777,1654.1841675320175,0.0669179109744877,6.69179109744877e-05,0.262639433145523,-0.991392016410827,1.25403144955635
489882.222737754,1654.2279675090103,0.0669196828417969,6.69196828417969e-05,0.261608362197876,-0.991487503051757,1.25309586524963
489882.270737711,1654.2759674660047,0.0669216246673432,6.69216246673432e-05,0.260577291250228,-0.991353869438171,1.2519311606884
489882.321137685,1654.3263674399932,0.0669236635929893,6.692366359298931e-05,0.259508043527603,-0.991544783115387,1.25105282664299
489882.370537639,1654.3757673940272,0.0669256619976205,6.69256619976205e-05,0.258476972579956,-0.991468429565429,1.24994540214538
489882.419537607,1654.424767362012,0.0669276442292681,6.69276442292681e-05,0.257464975118637,-0.991430222988128,1.24889519810676
489882.460537567,1654.4657673219917,0.0669293027913322,6.69293027913322e-05,0.25643390417099,-0.991582930088043,1.24801683425903
489882.501937545,1654.5071673000348,0.0669309775691538,6.69309775691538e-05,0.255364656448364,-0.991506576538085,1.24687123298645
489882.5527375,1654.5579672550084,0.0669330325910582,6.69330325910582e-05,0.254314482212066,-0.991468429565429,1.24578291177749
489882.598937475,1654.6041672300198,0.0669349015878207,6.69349015878207e-05,0.25330251455307,-0.991506576538085,1.24480909109115
489882.641337439,1654.646567194024,0.0669366167834211,6.69366167834211e-05,0.252233237028121,-0.991563856601715,1.24379709362983
489882.681737405,1654.6869671600289,0.0669382511356928,6.69382511356928e-05,0.251183092594146,-0.991372942924499,1.24255603551864
489882.723337381,1654.728567135986,0.0669399340298764,6.69399340298764e-05,0.250094711780548,-0.991563856601715,1.24165856838226
489882.769137341,1654.774367096019,0.0669417867355711,6.69417867355711e-05,0.249025464057922,-0.991563856601715,1.24058932065963
489882.807337313,1654.812567068031,0.0669433320666287,6.69433320666287e-05,0.247994378209114,-0.991582930088043,1.23957730829715
489882.85773728,1654.8629670350347,0.0669453709791816,6.69453709791816e-05,0.246963307261467,-0.991296589374542,1.238259896636
489882.897937241,1654.903166996024,0.0669469972292276,6.69469972292276e-05,0.24595133960247,-0.99131566286087,1.23726700246334
489882.938537219,1654.9437669740291,0.0669486396116002,6.69486396116002e-05,0.244920268654823,-0.9914111495018,1.23633141815662
489882.972337195,1654.9775669500232,0.0669500069172101,6.69500069172101e-05,0.243889197707176,-0.991296589374542,1.23518578708171
489883.014537163,1655.0197669180343,0.0669517141318495,6.69517141318495e-05,0.242877215147018,-0.991392016410827,1.23426923155784
489883.046137139,1655.0513668940403,0.0669529925007498,6.69529925007498e-05,0.241846144199371,-0.991544783115387,1.23339092731475
489883.086137101,1655.0913668560097,0.0669546106669547,6.69546106669547e-05,0.240815073251724,-0.991621136665344,1.23243620991706
489883.123337079,1655.1285668340279,0.0669561155455908,6.695611554559081e-05,0.239803090691566,-0.991563856601715,1.23136694729328
489883.164337057,1655.1695668119937,0.0669577741568006,6.69577741568006e-05,0.23875293135643,-0.991602063179016,1.23035499453544
489883.202537022,1655.2077667770209,0.066959319513672,6.6959319513672e-05,0.237740948796272,-0.991487503051757,1.22922845184803
489883.240736987,1655.2459667419898,0.0669608649147344,6.696086491473439e-05,0.236709877848625,-0.991277515888214,1.22798739373683
489883.277936964,1655.2831667190185,0.0669623697954905,6.69623697954905e-05,0.235640615224838,-0.991430222988128,1.22707083821296
489883.31073694,1655.3159666950232,0.0669636967126744,6.69636967126744e-05,0.234609544277191,-0.991430222988128,1.22603976726532
489883.345336916,1655.350566670997,0.06696509640066,6.696509640066e-05,0.233559370040893,-0.991506576538085,1.22506594657897
489883.384336892,1655.3895666470053,0.0669666740645999,6.69666740645999e-05,0.232432827353477,-0.991487503051757,1.22392033040523
489883.423936855,1655.4291666100034,0.0669682760454516,6.696827604545159e-05,0.231363579630851,-0.991525650024414,1.22288922965526
489883.461336822,1655.4665665770299,0.0669697890429299,6.69697890429299e-05,0.230351597070694,-0.991449296474456,1.22180089354515
489883.4977368,1655.50296655501,0.0669712615844459,6.69712615844459e-05,0.229339614510536,-0.991372942924499,1.22071255743503
489883.525336776,1655.5305665310007,0.0669723781503696,6.69723781503696e-05,0.228327631950378,-0.991372942924499,1.21970057487487
489883.561936753,1655.5671665080008,0.0669738588163812,6.69738588163812e-05,0.227315664291381,-0.991392016410827,1.2187076807022
489883.598536729,1655.6037664840114,0.0669753394898193,6.69753394898193e-05,0.226284593343734,-0.991506576538085,1.21779116988182
489883.631536707,1655.6367664620047,0.0669766744077537,6.69766744077537e-05,0.225215330719947,-0.991372942924499,1.21658827364444
489883.663136684,1655.6683664390002,0.0669779527610963,6.69779527610963e-05,0.22420334815979,-0.991449296474456,1.21565264463424
489883.700136654,1655.7053664090345,0.0669794495495244,6.69794495495244e-05,0.223153188824653,-0.991468429565429,1.21462161839008
489883.73753662,1655.7427663750132,0.0669809625653849,6.69809625653849e-05,0.222045734524726,-0.991334736347198,1.21338047087192
489883.7667366,1655.7719663550379,0.0669821437521577,6.698214375215771e-05,0.221033751964569,-0.991563856601715,1.21259760856628
489883.802336569,1655.807566324016,0.0669835839045851,6.69835839045851e-05,0.220002681016922,-0.991506576538085,1.211509257555
489883.835936542,1655.841166297032,0.0669849431917668,6.69849431917668e-05,0.218990713357925,-0.991334736347198,1.21032544970512
489883.864536523,1655.8697662780178,0.0669861001691024,6.698610016910241e-05,0.217978730797767,-0.991430222988128,1.20940895378589
489883.899936497,1655.9051662519923,0.0669875322362798,6.69875322362798e-05,0.216890379786491,-0.991392016410827,1.20828239619731
489883.925536479,1655.9307662339997,0.0669885678871051,6.69885678871051e-05,0.215859308838844,-0.991487503051757,1.2073468118906
489883.96193645,1655.967166204995,0.0669900404098837,6.69900404098837e-05,0.214847326278686,-0.9914111495018,1.20625847578048
489883.995936428,1656.0011661830358,0.0669914158774698,6.69914158774698e-05,0.213835343718528,-0.991334736347198,1.20517008006572
489884.024536403,1656.0297661580262,0.0669925728689449,6.69925728689449e-05,0.212766081094741,-0.991525650024414,1.20429173111915
489884.058736382,1656.0639661370078,0.0669939563503622,6.699395635036221e-05,0.211735010147094,-0.991353869438171,1.20308887958526
489884.087736357,1656.0929661120172,0.0669951295095161,6.69951295095161e-05,0.210665762424469,-0.991449296474456,1.20211505889892
489884.121336335,1656.126566090039,0.0669964887751275,6.69964887751275e-05,0.209615588188171,-0.991392016410827,1.20100760459899
489884.153336311,1656.1585660660057,0.0669977832936653,6.69977832936653e-05,0.208565428853035,-0.99131566286087,1.1998810917139
489884.183736289,1656.188966043992,0.0669990130269569,6.69990130269569e-05,0.207534357905387,-0.991525650024414,1.1990600079298
489884.216136264,1656.2213660189882,0.06700032373368,6.700032373368e-05,0.20650328695774,-0.991392016410827,1.19789530336856
489884.244136241,1656.2493659959873,0.0670014564404107,6.70014564404107e-05,0.205453112721443,-0.991392016410827,1.19684512913227
489884.279136218,1656.284365973028,0.0670028723183449,6.70028723183449e-05,0.204422041773796,-0.9914111495018,1.19583319127559
489884.302936196,1656.3081659509917,0.0670038351669014,6.70038351669014e-05,0.203390970826149,-0.991372942924499,1.19476391375064
489884.338136171,1656.3433659260045,0.0670052591300897,6.70052591300897e-05,0.202378988265991,-0.9914111495018,1.19379013776779
489884.365936148,1656.371165902994,0.0670063837303553,6.70063837303553e-05,0.201347917318344,-0.991525650024414,1.19287356734275
489884.398736123,1656.4039658780093,0.067007710607585,6.7007710607585e-05,0.200259566307067,-0.99131566286087,1.19157522916793
489884.426136106,1656.4313658610336,0.0670088190292162,6.70088190292162e-05,0.19924758374691,-0.991353869438171,1.19060145318508
489884.459536079,1656.46476583404,0.0670101701770508,6.701017017705079e-05,0.198235616087913,-0.991449296474456,1.18968491256237
489884.483536068,1656.4887658230145,0.0670111410857597,6.70111410857597e-05,0.197223633527755,-0.991392016410827,1.18861564993858
489884.518136039,1656.5233657940407,0.0670125408165182,6.70125408165182e-05,0.196211650967598,-0.991296589374542,1.18750824034214
489884.543736025,1656.5489657800063,0.0670135764365851,6.70135764365851e-05,0.19519966840744,-0.991487503051757,1.18668717145919
489884.576136,1656.5813657550025,0.0670148871394231,6.70148871394231e-05,0.194187700748443,-0.991430222988128,1.18561792373657
489884.601735986,1656.6069657410262,0.0670159226962031,6.70159226962031e-05,0.193137526512146,-0.991353869438171,1.18449139595031
489884.631535962,1656.636765717005,0.0670171282723754,6.70171282723754e-05,0.192087367177009,-0.9914111495018,1.18349851667881
489884.662335939,1656.6675656940206,0.0670183742412288,6.70183742412288e-05,0.191037192940712,-0.991544783115387,1.18258197605609
489884.686935915,1656.6921656699851,0.0670193694141789,6.70193694141789e-05,0.190006121993064,-0.991468429565429,1.18147455155849
489884.721335891,1656.7265656460077,0.0670207610381164,6.70207610381164e-05,0.188936859369278,-0.991487503051757,1.18042436242103
489884.751135868,1656.756365623034,0.0670219665708004,6.702196657080039e-05,0.18790578842163,-0.991468429565429,1.17937421798706
489884.780735845,1656.7859655999928,0.0670231639952586,6.702316399525859e-05,0.186855629086494,-0.991372942924499,1.17822857201099
489884.807535823,1656.8127655780409,0.067024248174564,6.7024248174564e-05,0.185824558138847,-0.991640210151672,1.17746476829052
489884.840135799,1656.845365554036,0.0670255669746673,6.70255669746673e-05,0.18471710383892,-0.991372942924499,1.17609004676342
489884.865735776,1656.8709655310377,0.0670266026371586,6.702660263715859e-05,0.183705136179924,-0.9914111495018,1.17511628568172
489884.899135751,1656.9043655060232,0.0670279537719067,6.70279537719067e-05,0.182654961943626,-0.991353869438171,1.17400883138179
489884.925535734,1656.930765489,0.0670290217538444,6.70290217538444e-05,0.181509330868721,-0.991334736347198,1.17284406721591
489884.959735706,1656.9649654609966,0.0670304052677876,6.70304052677876e-05,0.180459156632423,-0.991353869438171,1.17181302607059
489884.98673569,1656.9919654449914,0.0670314974888614,6.70314974888614e-05,0.179408997297287,-0.991487503051757,1.17089650034904
489885.019135665,1657.0243654199876,0.0670328082090178,6.703280820901781e-05,0.1783397346735,-0.991258382797241,1.16959811747074
489885.044535651,1657.0497654060018,0.0670338357682279,6.703383576822789e-05,0.177270472049713,-0.991544783115387,1.1688152551651
489885.077335625,1657.0825653800275,0.0670351626532335,6.70351626532335e-05,0.176163032650947,-0.991372942924499,1.16753597557544
489885.103335611,1657.108565366012,0.0670362144554705,6.70362144554705e-05,0.175151050090789,-0.991449296474456,1.16660034656524
489885.133935589,1657.1391653440078,0.0670374523341168,6.70374523341168e-05,0.174119979143142,-0.991220235824585,1.16534021496772
489885.161735566,1657.1669653209974,0.0670385769485211,6.70385769485211e-05,0.173088908195495,-0.991392016410827,1.16448092460632
489885.188735543,1657.1939652980072,0.0670396692017698,6.703966920176981e-05,0.172038733959198,-0.991468429565429,1.16350716352462
489885.219735519,1657.2249652739847,0.0670409233354157,6.70409233354157e-05,0.17100766301155,-0.991430222988128,1.16243788599968
489885.244735496,1657.249965251016,0.0670419346721529,6.70419346721529e-05,0.169919312000274,-0.9914111495018,1.16133046150207
489885.279135473,1657.284365228028,0.0670433263272097,6.704332632720971e-05,0.168888241052627,-0.99131566286087,1.16020390391349
489885.304135449,1657.3093652040116,0.0670443377038986,6.704433770389861e-05,0.167876258492469,-0.991563856601715,1.15944011509418
489885.336135425,1657.3413651800365,0.0670456322574467,6.70456322574467e-05,0.166845187544822,-0.991353869438171,1.15819905698299
489885.36213541,1657.3673651650315,0.0670466840204407,6.70466840204407e-05,0.165814116597175,-0.991392016410827,1.157206133008
489885.388135395,1657.3933651500265,0.0670477358255097,6.70477358255097e-05,0.164783045649528,-0.991430222988128,1.15621326863765
489885.419935371,1657.425165126042,0.067049022275063,6.7049022275063e-05,0.163751974701881,-0.99131566286087,1.15506763756275
489885.445135358,1657.4503651130362,0.0670500417104894,6.70500417104894e-05,0.162739992141723,-0.991372942924499,1.15411293506622
489885.476935334,1657.4821650889935,0.0670513281222094,6.705132812220941e-05,0.161728024482727,-0.991258382797241,1.15298640727996
489885.50193531,1657.5071650650352,0.0670523395041981,6.70523395041981e-05,0.160716041922569,-0.991372942924499,1.15208898484706
489885.529535287,1657.5347650420154,0.0670534560888568,6.70534560888568e-05,0.159684970974922,-0.991372942924499,1.15105791389942
489885.560735263,1657.5659650180023,0.0670547182741704,6.705471827417039e-05,0.158672988414764,-0.991449296474456,1.15012228488922
489885.58513524,1657.590364995005,0.0670557054007526,6.705570540075261e-05,0.157661005854606,-0.991525650024414,1.14918665587902
489885.616935215,1657.622164970031,0.0670569918358087,6.705699183580869e-05,0.15664903819561,-0.991277515888214,1.14792655408382
489885.641735203,1657.6469649579958,0.067057995137497,6.705799513749699e-05,0.155560672283172,-0.9914111495018,1.14697182178497
489885.675535175,1657.6807649300317,0.0670593624590181,6.70593624590181e-05,0.154529601335525,-0.99131566286087,1.14584526419639
489885.70193516,1657.7071649149875,0.0670604304377702,6.70604304377702e-05,0.153517633676528,-0.991430222988128,1.14494785666465
489885.725335147,1657.7305649020127,0.0670613770539488,6.70613770539488e-05,0.152467459440231,-0.991449296474456,1.14391675591468
489885.760535121,1657.765764876036,0.0670628010114705,6.70628010114705e-05,0.151340916752815,-0.991372942924499,1.14271385967731
489885.788135101,1657.7933648559847,0.067063917533906,6.706391753390601e-05,0.150328949093818,-0.991544783115387,1.1418737322092
489885.818535077,1657.8237648319919,0.0670651473106892,6.70651473106892e-05,0.149221494793891,-0.991277515888214,1.1404990106821
489885.846135053,1657.8513648080407,0.067066263838076,6.7066263838076e-05,0.148190423846244,-0.991392016410827,1.13958244025707
489885.87793503,1657.8831647849875,0.0670675502264608,6.70675502264608e-05,0.147159352898597,-0.991277515888214,1.13843686878681
489885.904735007,1657.9099647619878,0.0670686343817265,6.70686343817265e-05,0.14609009027481,-0.991372942924499,1.13746303319931
489885.937334984,1657.9425647390308,0.0670699532023404,6.70699532023404e-05,0.145078107714653,-0.991353869438171,1.13643197715282
489885.96313496,1657.968364714994,0.0670709969037681,6.707099690376809e-05,0.144047036767005,-0.991239309310913,1.13528634607791
489885.994934937,1658.000164691999,0.0670722832596328,6.70722832596328e-05,0.142996877431869,-0.991334736347198,1.13433161377906
489886.021934915,1658.0271646699985,0.0670733755079268,6.707337550792681e-05,0.141984894871711,-0.991392016410827,1.13337691128253
489886.048734899,1658.053964654042,0.0670744597056153,6.70744597056153e-05,0.140953823924064,-0.991392016410827,1.13234584033489
489886.080134876,1658.085364631028,0.0670757299471879,6.70757299471879e-05,0.139941841363906,-0.991430222988128,1.13137206435203
489886.104334864,1658.1095646190224,0.0670767089344288,6.70767089344288e-05,0.13892987370491,-0.991525650024414,1.13045552372932
489886.138734836,1658.1439645910286,0.0670781005739314,6.707810057393141e-05,0.137917891144752,-0.991258382797241,1.12917627394199
489886.163134822,1658.1683645769954,0.0670790876895579,6.707908768955791e-05,0.136829540133476,-0.991277515888214,1.12810705602169
489886.198134794,1658.20336454903,0.0670805035812797,6.70805035812797e-05,0.135760277509689,-0.99131566286087,1.12707594037056
489886.224934774,1658.230164528999,0.0670815877612954,6.70815877612954e-05,0.134671926498413,-0.9914111495018,1.12608307600021
489886.258534751,1658.2637645060313,0.0670829470106496,6.708294701064959e-05,0.133602663874626,-0.99131566286087,1.12491832673549
489886.285734727,1658.290964482003,0.0670840473533894,6.70840473533894e-05,0.132533401250839,-0.991372942924499,1.12390634417533
489886.318934705,1658.3241644600057,0.0670853904294082,6.70853904294082e-05,0.131521418690681,-0.99131566286087,1.12283708155155
489886.345534681,1658.350764436007,0.0670864664828066,6.70864664828066e-05,0.130509451031684,-0.991487503051757,1.12199695408344
489886.378534657,1658.3837644120213,0.06708780141559,6.708780141559e-05,0.129497468471527,-0.991277515888214,1.12077498435974
489886.403734635,1658.4089643899933,0.0670888208920228,6.708882089202279e-05,0.12842820584774,-0.991468429565429,1.11989663541317
489886.438934611,1658.4441643659957,0.0670902448905632,6.70902448905632e-05,0.127397134900093,-0.991296589374542,1.11869372427463
489886.466534588,1658.471764343034,0.0670913614377537,6.70913614377537e-05,0.126385152339935,-0.991353869438171,1.1177390217781
489886.496934565,1658.5021643200307,0.067092591244234,6.7092591244234e-05,0.125354081392288,-0.991239309310913,1.1165933907032
489886.524334541,1658.5295642960118,0.0670936996605537,6.70936996605537e-05,0.124323010444641,-0.991449296474456,1.11577230691909
489886.557534519,1658.5627642740146,0.0670950427330343,6.70950427330343e-05,0.123291939496994,-0.991277515888214,1.1145694553852
489886.584334496,1658.589564251015,0.0670961268794653,6.70961268794653e-05,0.122279956936836,-0.991506576538085,1.11378653347492
489886.618334471,1658.623564226029,0.0670975023265415,6.70975023265415e-05,0.121229790151119,-0.991258382797241,1.11248817294836
489886.646134451,1658.6513642059872,0.0670986269257466,6.70986269257466e-05,0.120198719203472,-0.991506576538085,1.11170529574155
489886.680134424,1658.6853641790221,0.0671000023791873,6.710000237918729e-05,0.119186744093895,-0.991334736347198,1.11052148044109
489886.70513441,1658.7103641650174,0.0671010137413732,6.71010137413732e-05,0.118136577308177,-0.991334736347198,1.10947131365537
489886.738134384,1658.7433641389944,0.0671023487498139,6.71023487498139e-05,0.11708641052246,-0.991372942924499,1.10845935344696
489886.767934363,1658.7731641179998,0.0671035542924007,6.71035542924007e-05,0.115998059511184,-0.991334736347198,1.10733279585838
489886.801734335,1658.8069640900358,0.0671049215743236,6.71049215743236e-05,0.114947892725467,-0.991201102733612,1.10614899545908
489886.836934308,1658.8421640630113,0.0671063454830672,6.71063454830672e-05,0.11389772593975,-0.991162955760955,1.1050606817007
489886.86353429,1658.868764045008,0.0671074216117693,6.710742161176931e-05,0.112885743379592,-0.9914111495018,1.10429689288139
489886.898734261,1658.9039640160045,0.0671088456021721,6.71088456021721e-05,0.111835576593875,-0.991258382797241,1.10309395939111
489886.927134241,1658.9323639959912,0.0671099944861242,6.71099944861242e-05,0.110785417258739,-0.99131566286087,1.10210108011961
489886.959534216,1658.9647639709874,0.0671113051886037,6.711130518860369e-05,0.109754338860511,-0.991392016410827,1.10114635527133
489886.988134197,1658.9933639520314,0.0671124621829134,6.71124621829134e-05,0.108742363750934,-0.991372942924499,1.10011530667543
489887.023134168,1659.0283639230183,0.067113878056604,6.711387805660401e-05,0.107673101127147,-0.991449296474456,1.0991223976016
489887.058134147,1659.063363902038,0.067115293943021,6.7115293943021e-05,0.1066420301795,-0.99131566286087,1.09795769304037
489887.084934122,1659.090163877001,0.0671163781325825,6.711637813258251e-05,0.105630055069923,-0.991449296474456,1.09707935154438
489887.118734099,1659.1239638540428,0.0671177454806152,6.71177454806152e-05,0.104618072509765,-0.991201102733612,1.09581917524337
489887.149334075,1659.1545638300013,0.0671189833507761,6.71189833507761e-05,0.103587001562118,-0.991372942924499,1.09495994448661
489887.182134053,1659.187363807985,0.0671203102425088,6.712031024250879e-05,0.102479554712772,-0.991449296474456,1.09392885118722
489887.218534029,1659.2237637839862,0.0671217827115522,6.71217827115522e-05,0.101467579603195,-0.991258382797241,1.09272596240043
489887.246134007,1659.251363762014,0.0671228992601517,6.712289926015171e-05,0.100455597043037,-0.9914111495018,1.09186674654483
489887.265933994,1659.2711637489847,0.0671237002477513,6.71237002477513e-05,0.0998827815055847,-0.991430222988128,1.09131300449371
489887.266133993,1659.2713637480047,0.0671237083379527,6.712370833795269e-05,0.0999018773436546,-0.991334736347198,1.09123661369085
