time/s,reltime/s,C/mA.h,C/A.h,Ewe/V,Ece/V,Ewe-Ece/V,,soc_init (lookup in 0.2C),,Q/Q_max,soc_cell
512441.379929877,0,4.04987666341993E-08,4.04987666341993E-11,0.167031541466713,-0.999139010906219,1.16617055237293,,0.000173140556902034,,5.55538636957466E-07,0.000173696095538991
512441.380129877,0.00020000000949949,8.10021327601538E-08,8.10021327601538E-11,0.174119979143142,-0.999071538448333,1.17319151759147,,,,1.1111403670803E-06,0.000174251697269114
512441.380329878,0.000400001008529216,1.21512214342753E-07,1.21512214342753E-10,0.178950741887092,-1.00080895423889,1.17975969612598,,,,1.66683421594997E-06,0.000174807391117984
512441.380529878,0.000600001018028706,1.6202406419648E-07,1.6202406419648E-10,0.181719362735748,-1.00199258327484,1.18371194601059,,,,2.22255232093937E-06,0.000175363109222973
512441.380729878,0.000800000969320536,2.0253379146258E-07,2.0253379146258E-10,0.183762416243553,-1.00304269790649,1.18680511415004,,,,2.77824130950041E-06,0.000175918798211534
512441.380929878,0.00100000097882003,2.43044224050309E-07,2.43044224050309E-10,0.185347214341163,-1.00380635261535,1.18915356695652,,,,3.33393997325527E-06,0.000176474496875289
512441.381129878,0.00120000098831952,2.83556073904037E-07,2.83556073904037E-10,0.18637828528881,-1.00472271442413,1.19110099971294,,,,3.88965807824468E-06,0.000177030214980279
512441.381529878,0.0016000010073185,3.64578707350624E-07,3.64578707350624E-10,0.18790578842163,-1.00586819648742,1.19377398490905,,,,5.00107966187413E-06,0.000178141636563908
512441.381929879,0.00200000201584771,4.45601695113711E-07,4.45601695113711E-10,0.189204186201095,-1.00703275203704,1.19623693823814,,,,6.11250610581222E-06,0.000179253063007846
512441.382329879,0.00240000197663903,5.26625391509797E-07,5.26625391509797E-10,0.190330728888511,-1.00800645351409,1.19833718240261,,,,7.22394227036759E-06,0.000180364499172402
512441.382929879,0.0030000020051375,6.48169063859515E-07,6.48169063859515E-10,0.191705480217933,-1.00913286209106,1.20083834230899,,,,8.89120800904685E-06,0.000182031764911081
512441.383529878,0.00360000098589808,7.69705669747458E-07,7.69705669747458E-10,0.192832022905349,-1.01008749008178,1.20291951298713,,,,1.05583768140941E-05,0.000183698933716128
512441.384129877,0.00420000002486631,8.91242275635401E-07,8.91242275635401E-10,0.193901285529136,-1.01077473163604,1.20467601716518,,,,1.22255456191413E-05,0.000185366102521175
512441.384729876,0.00479999900562689,1.01277675893571E-06,1.01277675893571E-09,0.195008739829063,-1.01150023937225,1.20650897920131,,,,1.38926853077601E-05,0.000187033242209794
512441.385329875,0.00539999798638746,1.13431618942154E-06,1.13431618942154E-09,0.19603981077671,-1.01220667362213,1.20824648439884,,,,1.5559892859006E-05,0.00018870044976104
512441.386129873,0.00619999598711729,1.29636676443947E-06,1.29636676443947E-09,0.197395473718643,-1.01266491413116,1.2100603878498,,,,1.77828088400476E-05,0.000190923365742082
512441.386929872,0.00699999497737736,1.45841981305016E-06,1.45841981305016E-09,0.198541104793548,-1.01318037509918,1.21172147989273,,,,2.00057587524027E-05,0.000193146315654437
512441.387729871,0.00779999402584508,1.62047392129898E-06,1.62047392129898E-09,0.199648559093475,-1.01350486278533,1.21315342187881,,,,2.22287232002604E-05,0.000195369280102294
512441.388529869,0.00859999196836725,1.78252591027153E-06,1.78252591027153E-09,0.20079419016838,-1.01386761665344,1.21466180682182,,,,2.44516585771129E-05,0.000197592215479147
512441.389329868,0.00939999101683497,1.94457365075747E-06,1.94457365075747E-09,0.201939836144447,-1.01421129703521,1.21615113317966,,,,2.66745356756855E-05,0.000199815092577719
512441.390129867,0.010199990007095,2.10661962628364E-06,2.10661962628364E-09,0.203066378831863,-1.01451671123504,1.21758309006691,,,,2.88973885635616E-05,0.000202037945465596
512441.390929866,0.0109999889973551,2.26866949266857E-06,2.26866949266857E-09,0.204269289970397,-1.01472675800323,1.21899604797363,,,,3.11202948239859E-05,0.00020426085172602
512441.391729865,0.0117999879876152,2.43071688214937E-06,2.43071688214937E-09,0.205300360918045,-1.01507043838501,1.22037079930305,,,,3.33431671076731E-05,0.000206483724009707
512441.392529863,0.012599985988345,2.59276073839929E-06,2.59276073839929E-09,0.206369623541832,-1.01518499851226,1.2215546220541,,,,3.55659909245445E-05,0.000208706547826578
512441.393529862,0.0135999849881046,2.79531609018643E-06,2.79531609018643E-09,0.207629814743995,-1.01547133922576,1.22310115396976,,,,3.83445279860964E-05,0.00021148508488813
512441.39432986,0.0143999829888344,2.95737019843525E-06,2.95737019843525E-09,0.208737269043922,-1.01556682586669,1.22430409491062,,,,4.0567492433954E-05,0.000213708049335988
512441.395329859,0.0153999819885939,3.15992908345328E-06,3.15992908345328E-09,0.209940180182457,-1.0158531665802,1.22579334676265,,,,4.33460779623221E-05,0.000216486634864356
512441.396129857,0.0161999799893238,3.32197506229082E-06,3.32197506229082E-09,0.211009442806243,-1.01596772670745,1.2269771695137,,,,4.55689308956217E-05,0.000218709487797656
512441.396929856,0.0169999789795838,3.48402917385101E-06,3.48402917385101E-09,0.21213598549366,-1.01606321334838,1.22819919884204,,,,4.77918953889027E-05,0.000220932452290937
512441.398129854,0.0181999769993126,3.72710803813404E-06,3.72710803813404E-09,0.213453471660614,-1.01634955406189,1.2298030257225,,,,5.11263105368181E-05,0.000224266867438852
512441.398929854,0.0189999769791029,3.88915861315197E-06,3.88915861315197E-09,0.214599102735519,-1.01642596721649,1.23102506995201,,,,5.33492265178597E-05,0.000226489783419894
512441.399929855,0.0199999780161306,4.09172562758127E-06,4.09172562758127E-09,0.215744733810424,-1.01659774780273,1.23234248161315,,,,5.61279235607856E-05,0.00022926848046282
512441.400929855,0.0209999780054204,4.29429264863332E-06,4.29429264863332E-09,0.21698585152626,-1.01676952838897,1.23375537991523,,,,5.89066206945586E-05,0.000232047177596593
512441.401929856,0.0219999789842404,4.49685542119873E-06,4.49685542119873E-09,0.218150570988655,-1.0168650150299,1.23501558601856,,,,6.16852595500512E-05,0.000234825816452085
512441.402729856,0.0227999790222384,4.65890423125691E-06,4.65890423125691E-09,0.219162553548812,-1.01703691482543,1.23619946837425,,,,6.39081513203966E-05,0.000237048708222431
512441.403729855,0.023799978021998,4.86146347059144E-06,4.86146347059144E-09,0.220499128103256,-1.01701772212982,1.23751685023307,,,,6.66867417090733E-05,0.000239827298611107
512441.404729855,0.0247999780112878,5.06402447819709E-06,5.06402447819709E-09,0.221606582403183,-1.01713228225708,1.23873886466026,,,,6.94653563538696E-05,0.000242605913255904
512441.405529855,0.0255999779910781,5.22607964608404E-06,5.22607964608404E-09,0.222733125090599,-1.01707506179809,1.23980818688869,,,,7.16883353372296E-05,0.000244828892239264
512441.406529855,0.0265999779803678,5.42864736914634E-06,5.42864736914634E-09,0.223745092749595,-1.01720869541168,1.24095378816127,,,,7.44670421007728E-05,0.000247607599002807
512441.407329855,0.0273999780183658,5.59069935480753E-06,5.59069935480753E-09,0.224795266985893,-1.01724684238433,1.24204210937023,,,,7.66899774322021E-05,0.000249830534334236
512441.408129855,0.0281999779981561,5.75276053282949E-06,5.75276053282949E-09,0.225807234644889,-1.01724684238433,1.24305407702922,,,,7.89130388591151E-05,0.000252053595761149
512441.409129855,0.0291999779874459,5.95532188812891E-06,5.95532188812891E-09,0.227029249072074,-1.01749503612518,1.24452428519725,,,,8.16916582733732E-05,0.000254832215175407
512441.410129854,0.0301999769872054,6.15787936250368E-06,6.15787936250368E-09,0.228155791759491,-1.01749503612518,1.24565082788467,,,,8.44702244513536E-05,0.000257610781353388
512441.410929855,0.0309999780147336,6.31993523902363E-06,6.31993523902363E-09,0.229225054383277,-1.01747596263885,1.24670101702213,,,,8.6693213155331E-05,0.000259833770057365
512441.411929855,0.0319999780040234,6.52249341540866E-06,6.52249341540866E-09,0.230332508683204,-1.01739954948425,1.24773205816745,,,,8.94717889630818E-05,0.000262612345865116
512441.412929856,0.0329999789828435,6.72504841619067E-06,6.72504841619067E-09,0.23147813975811,-1.01751410961151,1.24899224936962,,,,9.22503212097486E-05,0.000265390878111783
512441.413929856,0.0339999789721333,6.92761331465509E-06,6.92761331465509E-09,0.232661962509155,-1.01764774322509,1.25030970573425,,,,9.50289892270932E-05,0.000268169546129127
512441.414929855,0.0349999779718928,7.13017644484837E-06,7.13017644484837E-09,0.23376940190792,-1.01760959625244,1.25137899816036,,,,9.78076329883178E-05,0.000270948189890352
512441.415729854,0.0357999770203605,7.29223020209206E-06,7.29223020209206E-09,0.234800487756729,-1.01781964302063,1.25262013077735,,,,0.00010003059262129,0.000273171149523324
512441.416929852,0.0369999749818817,7.53530412250094E-06,7.53530412250094E-09,0.236175239086151,-1.01781964302063,1.25399488210678,,,,0.000103364939952002,0.000276505496854036
512441.41812985,0.0381999730016105,7.77837910254796E-06,7.77837910254796E-09,0.237454533576965,-1.01789593696594,1.2553504705429,,,,0.000106699301818216,0.00027983985872025
512441.419129848,0.0391999710118398,7.98094612028863E-06,7.98094612028863E-09,0.238561987876892,-1.0180104970932,1.25657248497009,,,,0.000109477998906566,0.0002826185558086
512441.420329846,0.040399968973361,8.22401085164811E-06,8.22401085164811E-09,0.239841282367706,-1.0180869102478,1.2579281926155,,,,0.000112812220187217,0.000285952777089251
512441.421329844,0.0413999669835903,8.42657150493727E-06,8.42657150493727E-09,0.240948721766471,-1.01791512966156,1.25886385142803,,,,0.000115590829971705,0.000288731386873739
512441.422329843,0.0423999659833498,8.62913710541195E-06,8.62913710541195E-09,0.242113456130027,-1.0181633234024,1.26027677953243,,,,0.00011836950761882,0.000291510064520854
512441.423329841,0.0433999639935792,8.83169563611348E-06,8.83169563611348E-09,0.243220910429954,-1.01822054386138,1.26144145429134,,,,0.000121148088286879,0.000294288645188913
512441.424329839,0.0443999620038085,9.03425982594489E-06,9.03425982594489E-09,0.244366541504859,-1.01822054386138,1.26258708536624,,,,0.000123926746583606,0.00029706730348564
512441.425329837,0.0453999600140378,9.23682542973094E-06,9.23682542973094E-09,0.245435804128646,-1.01814413070678,1.26357993483543,,,,0.000126705424276145,0.000299845981178179
512441.426329836,0.0463999590137973,9.43938289748297E-06,9.43938289748297E-09,0.246543243527412,-1.01833510398864,1.26487834751606,,,,0.000129483990363278,0.000302624547265312
512441.427329834,0.0473999570240267,9.64194637868139E-06,9.64194637868139E-09,0.247727066278457,-1.01823961734771,1.26596668362617,,,,0.000132262638939388,0.000305403195841422
512441.428329832,0.0483999549760483,9.84452011187871E-06,9.84452011187871E-09,0.248929992318153,-1.01827776432037,1.26720775663852,,,,0.000135041428146484,0.000308181985048518
512441.429329831,0.0493999539758079,1.00470864209863E-05,1.00470864209863E-08,0.250056535005569,-1.0181633234024,1.26821985840797,,,,0.000137820115514215,0.000310960672416249
512441.430329831,0.0503999540233053,1.02496446006827E-05,1.02496446006827E-08,0.251144886016845,-1.01820147037506,1.2693463563919,,,,0.00014059869136739,0.000313739248269424
512441.431329831,0.0513999540125951,1.04522048996554E-05,1.04522048996554E-08,0.252195060253143,-1.01823961734771,1.27043467760086,,,,0.000143377296291569,0.000316517853193603
512441.432329832,0.0523999549914151,1.06547659072611E-05,1.06547659072611E-08,0.25330251455307,-1.01822054386138,1.27152305841445,,,,0.000146155910936366,0.0003192964678384
512441.433329833,0.0533999559702352,1.08573346899615E-05,1.08573346899615E-08,0.254390865564346,-1.01841151714325,1.27280238270759,,,,0.000148934632235412,0.000322075189137446
512441.434329832,0.0543999549699947,1.10598995851145E-05,1.10598995851145E-08,0.255479216575622,-1.01827776432037,1.27375698089599,,,,0.000151713300207332,0.000324853857109366
512441.435329832,0.0553999550174922,1.12624581191274E-05,1.12624581191274E-08,0.256624847650528,-1.01833510398864,1.27495995163917,,,,0.000154491880920815,0.000327632437822849
512441.436529832,0.0565999550162815,1.15055376920435E-05,1.15055376920435E-08,0.257751375436782,-1.01841151714325,1.27616289258003,,,,0.000157826305789348,0.000330966862691382
512441.437529832,0.0575999550055712,1.17080979943275E-05,1.17080979943275E-08,0.258763372898101,-1.01846873760223,1.27723211050033,,,,0.000160604910758951,0.000333745467660985
512441.438529832,0.058599954994861,1.19106643034352E-05,1.19106643034352E-08,0.259947180747985,-1.01850688457489,1.27845406532287,,,,0.000163383598126683,0.000336524155028717
512441.439529832,0.0595999549841508,1.21132327351305E-05,1.21132327351305E-08,0.260959178209304,-1.01846873760223,1.27942791581153,,,,0.000166162314610844,0.000339302871512878
512441.440729831,0.0607999539934099,1.23563084204991E-05,1.23563084204991E-08,0.262142986059188,-1.01862144470214,1.28076443076133,,,,0.000169496686152251,0.000342637243054285
512441.441929831,0.0619999539921992,1.25993886987368E-05,1.25993886987368E-08,0.263422280550003,-1.01858329772949,1.28200557827949,,,,0.000172831120695978,0.000345971677598012
512441.443129832,0.0631999549805187,1.28424633277787E-05,1.28424633277787E-08,0.264587014913559,-1.01867878437042,1.28326579928398,,,,0.000176165477747307,0.000349306034649341
512441.444129833,0.0641999560175464,1.30450268122884E-05,1.30450268122884E-08,0.265637189149856,-1.0187360048294,1.28437319397926,,,,0.00017894412636884,0.000352084683270874
512441.445129833,0.0651999560068362,1.32475839323467E-05,1.32475839323467E-08,0.266706436872482,-1.01864051818847,1.28534695506095,,,,0.000181722687686512,0.000354863244588546
512441.446129832,0.0661999550065957,1.34501417544153E-05,1.34501417544153E-08,0.267718434333801,-1.01869785785675,1.28641629219055,,,,0.000184501258633955,0.000357641815535989
512441.44712983,0.067199953016825,1.36526988744735E-05,1.36526988744735E-08,0.268806785345077,-1.01865971088409,1.28746649622917,,,,0.000187279819951626,0.00036042037685366
512441.448129829,0.0681999520165846,1.38552609450287E-05,1.38552609450287E-08,0.269818753004074,-1.01871693134307,1.28853568434715,,,,0.000190058449177348,0.000363199006079382
512441.449129827,0.0691999499686062,1.40578251282374E-05,1.40578251282374E-08,0.270868927240371,-1.01867878437042,1.28954771161079,,,,0.000192837107383229,0.000365977664285263
512441.450129825,0.0701999479788356,1.42603871954811E-05,1.42603871954811E-08,0.271995455026626,-1.01877415180206,1.29076960682869,,,,0.000195615736563527,0.000368756293465561
512441.451329823,0.0713999459985644,1.45034604006343E-05,1.45034604006343E-08,0.273160189390182,-1.01862144470214,1.29178163409233,,,,0.000198950074082775,0.000372090630984809
512441.452529821,0.0725999440182932,1.4746545271741E-05,1.4746545271741E-08,0.27421036362648,-1.01867878437042,1.2928891479969,,,,0.00020228457162882,0.000375425128530854
512441.45332982,0.0733999430085532,1.49086004396279E-05,1.49086004396279E-08,0.275222331285476,-1.01858329772949,1.29380562901496,,,,0.00020450755061218,0.000377648107514214
512441.454529818,0.0745999409700744,1.51516796582274E-05,1.51516796582274E-08,0.276291608810424,-1.01869785785675,1.29498946666717,,,,0.000207841970620403,0.000380982527522437
512441.455729816,0.0757999389898032,1.53947602874702E-05,1.53947602874702E-08,0.277513593435287,-1.0187360048294,1.29624959826469,,,,0.000211176409979015,0.000384316966881049
512441.456729814,0.0767999370000325,1.55973269508944E-05,1.55973269508944E-08,0.278582870960235,-1.018812417984,1.29739528894424,,,,0.000213955102207056,0.00038709565910909
512441.457929812,0.0779999350197613,1.58404047522279E-05,1.58404047522279E-08,0.279728502035141,-1.01890790462493,1.29863640666008,,,,0.000217289502774045,0.000390430059676079
512441.45912981,0.0791999329812825,1.60834793746471E-05,1.60834793746471E-08,0.280855029821395,-1.01879334449768,1.29964837431907,,,,0.000220623859734528,0.000393764416636562
512441.460329808,0.0803999310010113,1.63265568282869E-05,1.63265568282869E-08,0.282000690698623,-1.01890790462493,1.30090859532356,,,,0.000223958255532056,0.00039709881243409
512441.461529807,0.0815999300102703,1.65696321560276E-05,1.65696321560276E-08,0.283146321773529,-1.01904153823852,1.30218786001205,,,,0.000227292622167731,0.000400433179069765
512441.462729808,0.0827999309985898,1.68127099606725E-05,1.68127099606725E-08,0.284291952848434,-1.01892697811126,1.3032189309597,,,,0.000230627022780144,0.000403767579682178
512441.463929809,0.0839999319869094,1.70557976663112E-05,1.70557976663112E-08,0.285323023796081,-1.01900327205658,1.30432629585266,,,,0.000233961559208658,0.000407102116110692
512441.464929809,0.0849999319761992,1.7258359733555E-05,1.7258359733555E-08,0.286411374807357,-1.01898419857025,1.3053955733776,,,,0.000236740188388958,0.000409880745290992
512441.466129808,0.0861999309854582,1.75014424886968E-05,1.75014424886968E-08,0.287576109170913,-1.01906061172485,1.30663672089576,,,,0.000240074656909421,0.000413215213811455
512441.467329808,0.0873999309842475,1.77445195880201E-05,1.77445195880201E-08,0.288817197084426,-1.0190223455429,1.30783954262733,,,,0.000243409047846641,0.000416549604748675
512441.468529808,0.0885999309830368,1.79875920911629E-05,1.79875920911629E-08,0.289943754673004,-1.01892697811126,1.30887073278427,,,,0.000246743375736117,0.000419883932638151
512441.469729808,0.089799930981826,1.82306635313563E-05,1.82306635313563E-08,0.290993928909301,-1.0190223455429,1.3100162744522,,,,0.000250077689044668,0.000423218245946702
512441.470729808,0.0907999309711158,1.84332312544186E-05,1.84332312544186E-08,0.292101353406906,-1.01896512508392,1.31106647849082,,,,0.000252856395808211,0.000425996952710245
512441.471929807,0.0919999299803749,1.86762981083657E-05,1.86762981083657E-08,0.293113350868225,-1.01892697811126,1.31204032897949,,,,0.000256190646205291,0.000429331203107325
512441.473129808,0.0931999309686944,1.89193766216437E-05,1.89193766216437E-08,0.294201701879501,-1.01896512508392,1.31316682696342,,,,0.000259525056538322,0.000432665613440356
512441.474329808,0.0943999310256913,1.91624519427617E-05,1.91624519427617E-08,0.295385509729385,-1.01896512508392,1.3143506348133,,,,0.000262859423083151,0.000435999979985185
512441.475729809,0.0957999320235103,1.94460394812954E-05,1.94460394812954E-08,0.29660752415657,-1.01909875869751,1.31570628285408,,,,0.000266749512774971,0.000439890069677005
512441.476929809,0.0969999320222996,1.96891137527094E-05,1.96891137527094E-08,0.297676801681518,-1.0190223455429,1.31669914722442,,,,0.000270083864920568,0.000443224421822602
512441.478129807,0.0981999299838208,1.9932189087073E-05,1.9932189087073E-08,0.298688769340515,-1.01904153823852,1.31773030757904,,,,0.000273418231647092,0.000446558788549126
512441.479129806,0.0991999289835803,2.01347490350405E-05,2.01347490350405E-08,0.299719840288162,-1.01904153823852,1.31876137852668,,,,0.000276196831756386,0.00044933738865842
512441.480529803,0.100599926023278,2.04183443387349E-05,2.04183443387349E-08,0.300903677940368,-1.01917517185211,1.32007884979248,,,,0.000280087027966185,0.000453227584868219
512441.481929801,0.101999923994299,2.07019166714615E-05,2.07019166714615E-08,0.302030205726623,-1.01915609836578,1.3211863040924,,,,0.000283976909073546,0.00045711746597558
512441.483129799,0.103199922014028,2.09449866943889E-05,2.09449866943889E-08,0.30313766002655,-1.01936602592468,1.32250368595123,,,,0.000287311202940863,0.000460451759842897
512441.484329797,0.104399919975549,2.1188057432572E-05,2.1188057432572E-08,0.304168730974197,-1.01925146579742,1.32342019677162,,,,0.000290645506619643,0.000463786063521677
512441.485329795,0.105399917985778,2.13906212713983E-05,2.13906212713983E-08,0.305180698633194,-1.01938509941101,1.3245657980442,,,,0.000293424160101486,0.00046656471700352
512441.486729793,0.106799916015007,2.16742084523042E-05,2.16742084523042E-08,0.306307256221771,-1.01927053928375,1.32557779550552,,,,0.000297314244887575,0.000470454801789609
512441.48812979,0.108199912996497,2.195779563321E-05,2.195779563321E-08,0.307586550712585,-1.01928973197937,1.32687628269195,,,,0.000301204329673663,0.000474344886575697
512441.489329788,0.109399911016226,2.22008716662724E-05,2.22008716662724E-08,0.308655798435211,-1.01919424533844,1.32785004377365,,,,0.000304538705984532,0.000477679262886566
512441.490729786,0.110799908987246,2.24844662646452E-05,2.24844662646452E-08,0.309782356023788,-1.01923239231109,1.32901474833488,,,,0.000308428892519139,0.000481569449421173
512441.491929784,0.111999907006975,2.27275430129633E-05,2.27275430129633E-08,0.310832500457763,-1.01927053928375,1.33010303974151,,,,0.000311763278641472,0.000484903835543506
512441.493329784,0.113399907015264,2.30111372570196E-05,2.30111372570196E-08,0.312054514884948,-1.01921331882476,1.33126783370971,,,,0.00031565346031577,0.000488794017217804
512441.494729785,0.114799908013083,2.32947357429398E-05,2.32947357429398E-08,0.313085585832595,-1.01917517185211,1.3322607576847,,,,0.000319543700177501,0.000492684257079535
512441.495929786,0.115999909001403,2.35378135475847E-05,2.35378135475847E-08,0.314154863357543,-1.01921331882476,1.33336818218231,,,,0.000322878100789914,0.000496018657691948
512441.497329785,0.117399908020161,2.38213996622297E-05,2.38213996622297E-08,0.315262287855148,-1.01928973197937,1.33455201983451,,,,0.000326768170949653,0.000499908727851687
512441.498729785,0.118799907970242,2.41049893167283E-05,2.41049893167283E-08,0.316312462091445,-1.01934695243835,1.3356594145298,,,,0.000330658289667055,0.000503798846569089
512441.500129785,0.120199907978531,2.43885821501413E-05,2.43885821501413E-08,0.317381739616394,-1.01934695243835,1.33672869205474,,,,0.000334548451990964,0.000507689008892998
512441.501529785,0.12159990798682,2.4672171096007E-05,2.4672171096007E-08,0.318527370691299,-1.01951873302459,1.33804610371589,,,,0.00033843856098775,0.000511579117889784
512441.503129784,0.123199907015078,2.49962697658273E-05,2.49962697658273E-08,0.319730281829834,-1.01955699920654,1.33928728103637,,,,0.000342884358927672,0.000516024915829706
512441.504329784,0.124399907013867,2.52393426265981E-05,2.52393426265981E-08,0.320799529552459,-1.01942336559295,1.34022289514541,,,,0.000346218691722882,0.000519359248624916
512441.505929785,0.125999908021186,2.55634469588597E-05,2.55634469588597E-08,0.321830600500106,-1.01938509941101,1.34121569991111,,,,0.000350664567336896,0.00052380512423893
512441.507129786,0.127199909009505,2.5806515213516E-05,2.5806515213516E-08,0.322995334863662,-1.01940429210662,1.34239962697029,,,,0.000353998836948093,0.000527139393850127
512441.508729785,0.128799907979555,2.6130613880025E-05,2.6130613880025E-08,0.32412189245224,-1.01934695243835,1.34346884489059,,,,0.000358444634842593,0.000531585191744627
512441.510129783,0.130199906008784,2.64141985873381E-05,2.64141985873381E-08,0.325152963399887,-1.01942336559295,1.34457632899284,,,,0.000362334685697368,0.000535475242599402
512441.51152978,0.131599902990274,2.66977938910325E-05,2.66977938910325E-08,0.3263940513134,-1.01936602592468,1.34576007723808,,,,0.000366224881907167,0.000539365438809201
512441.513129778,0.133199900970794,2.70218999882539E-05,2.70218999882539E-08,0.327425122261047,-1.01951873302459,1.34694385528564,,,,0.000370670781731878,0.000543811338633912
512441.514529775,0.134599898010492,2.73054917620287E-05,2.73054917620287E-08,0.328494399785995,-1.01944243907928,1.34793683886528,,,,0.000374560929520284,0.000547701486422318
512441.515929773,0.135999895981513,2.75890817675325E-05,2.75890817675325E-08,0.329506367444992,-1.01936602592468,1.34887239336967,,,,0.000378451053052572,0.000551591609954606
512441.51752977,0.137599892972503,2.79131758378611E-05,2.79131758378611E-08,0.330632925033569,-1.01946151256561,1.35009443759918,,,,0.000382896787899329,0.000556037344801363
512441.518929768,0.138999891001731,2.81967729164494E-05,2.81967729164494E-08,0.331663995981216,-1.01942336559295,1.35108736157417,,,,0.000386787008456096,0.00055992756535813
512441.520729765,0.140799888002221,2.85613880289925E-05,2.85613880289925E-08,0.332714140415191,-1.0196715593338,1.35238569974899,,,,0.000391788587503327,0.000564929144405361
512441.522129762,0.142199884983711,2.88449723786777E-05,2.88449723786777E-08,0.33372613787651,-1.01961421966552,1.35334035754203,,,,0.000395678633452369,0.000568819190354403
512441.523729761,0.143799884011969,2.91690682272116E-05,2.91690682272116E-08,0.334757208824157,-1.01951873302459,1.35427594184875,,,,0.000400124392691517,0.000573264949593551
512441.525329762,0.145399885019287,2.94931714965237E-05,2.94931714965237E-08,0.336036503314971,-1.01961421966552,1.35565072298049,,,,0.000404570253724605,0.000577710810626639
512441.526929763,0.146999885968398,2.98172790076997E-05,2.98172790076997E-08,0.337105751037597,-1.01955699920654,1.35666275024414,,,,0.000409016172945126,0.00058215672984716
512441.528529762,0.148599884996656,3.01413921746942E-05,3.01413921746942E-08,0.338232308626174,-1.01961421966552,1.3578465282917,,,,0.000413462169748892,0.000586602726650926
512441.530529762,0.150599884975236,3.05465318659941E-05,3.05465318659941E-08,0.339435219764709,-1.01951873302459,1.3589539527893,,,,0.000419019641508835,0.000592160198410869
512441.532129762,0.152199884993024,3.08706400791803E-05,3.08706400791803E-08,0.340504467487335,-1.01948058605194,1.35998505353927,,,,0.000423465570359126,0.00059660612726116
512441.533729762,0.153799885010812,3.11947394642564E-05,3.11947394642564E-08,0.341631025075912,-1.01957607269287,1.36120709776878,,,,0.000427911378110513,0.000601051935012547
512441.535529761,0.155599883990362,3.15593524542119E-05,3.15593524542119E-08,0.342662096023559,-1.01957607269287,1.36223816871643,,,,0.000432912928041316,0.00060605348494335
512441.537329762,0.15739988500718,3.1923968275388E-05,3.1923968275388E-08,0.343674063682556,-1.01959514617919,1.36326920986175,,,,0.000437914516809163,0.000611055073711197
512441.538929763,0.158999886014499,3.22480662398868E-05,3.22480662398868E-08,0.344686031341552,-1.01980519294738,1.36449122428894,,,,0.000442360305073893,0.000615500861975927
512441.540729761,0.160799884004518,3.26126894851525E-05,3.26126894851525E-08,0.345774412155151,-1.01978611946106,1.36556053161621,,,,0.000447361995681104,0.000620502552583138
512441.542729757,0.162799880024977,3.3017825288905E-05,3.3017825288905E-08,0.346920043230056,-1.01978611946106,1.36670616269111,,,,0.000452919414113923,0.000626059971015957
512441.544729754,0.164799876976758,3.34229596687687E-05,3.34229596687687E-08,0.348027467727661,-1.01986241340637,1.36788988113403,,,,0.00045847681301466,0.000631617369916694
512441.546529751,0.166599873977248,3.37875811457633E-05,3.37875811457633E-08,0.349077641963958,-1.0200343132019,1.36911195516586,,,,0.000463478479365752,0.000636619036267786
512441.548329748,0.168399870977737,3.41521909667385E-05,3.41521909667385E-08,0.350146919488906,-1.01969063282012,1.36983755230903,,,,0.000468479985826317,0.000641620542728351
512441.550129745,0.170199867978226,3.45168085561858E-05,3.45168085561858E-08,0.351235270500183,-1.01976692676544,1.37100219726562,,,,0.000473481598850285,0.000646622155752319
512441.551929742,0.171999864978716,3.48814240230454E-05,3.48814240230454E-08,0.352247238159179,-1.01969063282012,1.3719378709793,,,,0.000478483182757824,0.000651623739659858
512441.553729739,0.173799861979205,3.52460338373978E-05,3.52460338373978E-08,0.353316485881805,-1.01972877979278,1.37304526567459,,,,0.000483484689127542,0.000656625246029576
512441.555929738,0.175999860977754,3.56916680501566E-05,3.56916680501566E-08,0.354481220245361,-1.01974785327911,1.37422907352447,,,,0.000489597641291586,0.00066273819819362
512441.558129739,0.178199862013571,3.61373054418298E-05,3.61373054418298E-08,0.35549321770668,-1.01978611946106,1.37527933716774,,,,0.000495710637062137,0.000668851193964171
512441.560329739,0.18039986200165,3.65829414195484E-05,3.65829414195484E-08,0.356619745492935,-1.01978611946106,1.37640586495399,,,,0.000501823613436878,0.000674964170338912
512441.562529739,0.182599861989729,3.70285798741711E-05,3.70285798741711E-08,0.357708096504211,-1.0200343132019,1.37774240970611,,,,0.000507936623788355,0.000681077180690389
512441.564729739,0.184799861977808,3.74742151565021E-05,3.74742151565021E-08,0.35872009396553,-1.01999604701995,1.37871614098548,,,,0.000514049590624172,0.000687190147526206
512441.566729738,0.186799861025065,3.78793438838587E-05,3.78793438838587E-08,0.359865725040435,-1.01997697353363,1.37984269857406,,,,0.000519606911987088,0.000692747468889122
512441.569129739,0.189199862012174,3.83655118677351E-05,3.83655118677351E-08,0.360934972763061,-1.01991975307464,1.3808547258377,,,,0.000526275882959329,0.000699416439861363
512441.571129739,0.191199861990754,3.87706317570474E-05,3.87706317570474E-08,0.362004250288009,-1.0199579000473,1.38196215033531,,,,0.00053183308308707,0.000704973639989104
512441.573329735,0.193399858020712,3.92162659698062E-05,3.92162659698062E-08,0.363054394721984,-1.01986241340637,1.38291680812835,,,,0.000537946035251114,0.000711086592153148
512441.575729731,0.195799854001962,3.97024212247795E-05,3.97024212247795E-08,0.364104568958282,-1.01997697353363,1.38408154249191,,,,0.000544614831615631,0.000717755388517665
512441.578129727,0.198199849983212,4.01885577407148E-05,4.01885577407148E-08,0.365192919969558,-1.02001512050628,1.38520804047584,,,,0.000551283370928872,0.000724423927830906
512441.580929722,0.20099984499393,4.07557377550337E-05,4.07557377550337E-08,0.366319477558136,-1.01999604701995,1.38631552457809,,,,0.000559063618038871,0.000732204174940905
512441.583329718,0.20339984097518,4.12418993678357E-05,4.12418993678357E-08,0.367350548505783,-1.02009153366088,1.38744208216667,,,,0.000565732501616402,0.000738873058518436
512441.585929714,0.205999837024137,4.1768575310707E-05,4.1768575310707E-08,0.368477076292038,-1.02016794681549,1.38864502310752,,,,0.000572957137321084,0.000746097694223118
512441.588329715,0.208399838011246,4.22547224329577E-05,4.22547224329577E-08,0.369622707366943,-1.02012968063354,1.38975238800048,,,,0.00057962582212562,0.000752766379027654
512441.591129715,0.211199837969616,4.28218960795137E-05,4.28218960795137E-08,0.370634704828262,-1.02001512050628,1.39064982533454,,,,0.000587405981886333,0.000760546538788367
512441.593529715,0.213599838025402,4.33080516854921E-05,4.33080516854921E-08,0.371665775775909,-1.0200343132019,1.39170008897781,,,,0.000594074783065735,0.000767215339967769
512441.596529715,0.216599837993272,4.39157357646359E-05,4.39157357646359E-08,0.372715920209884,-1.02007246017456,1.39278838038444,,,,0.000602410641490204,0.000775551198392238
512441.599129715,0.21919983800035,4.44424011045032E-05,4.44424011045032E-08,0.373727917671203,-1.02018702030181,1.39391493797302,,,,0.000609635131749015,0.000782775688651049
512441.602329716,0.222399839025456,4.50906136532624E-05,4.50906136532624E-08,0.374778062105178,-1.02026331424713,1.39504137635231,,,,0.000618526936258744,0.000791667493160777
512441.605129711,0.225199833977968,4.56577823559443E-05,4.56577823559443E-08,0.375790059566497,-1.02026331424713,1.39605337381362,,,,0.000626307028202254,0.000799447585104288
512441.608129706,0.228199828998186,4.62654689086808E-05,4.62654689086808E-08,0.376802027225494,-1.0202442407608,1.39704626798629,,,,0.000634642920558036,0.00080778347746007
512441.610529702,0.230599824979436,4.67516291108396E-05,4.67516291108396E-08,0.377871304750442,-1.02022516727447,1.39809647202491,,,,0.00064131178478518,0.000814452341687214
512441.614129696,0.234199818980414,4.74808317687776E-05,4.74808317687776E-08,0.379055112600326,-1.02007246017456,1.39912757277488,,,,0.00065131456472946,0.000824455121631494
512441.617529691,0.237599814019632,4.81695448524422E-05,4.81695448524422E-08,0.380105286836624,-1.02020609378814,1.40031138062477,,,,0.000660761932132266,0.0008339024890343
512441.621129693,0.24119981599506,4.88987726006242E-05,4.88987726006242E-08,0.38111725449562,-1.0203206539154,1.40143790841102,,,,0.000670765056249989,0.000843905613152023
512441.624929692,0.244999815011397,4.96685150563716E-05,4.96685150563716E-08,0.382320165634155,-1.02033972740173,1.40265989303588,,,,0.000681323937673136,0.00085446449457517
512441.628329691,0.248399814008735,5.03572196563084E-05,5.03572196563084E-08,0.383332163095474,-1.0203206539154,1.40365281701088,,,,0.000690771188701076,0.000863911745603109
512441.631729693,0.251799815974664,5.10459433363543E-05,5.10459433363543E-08,0.3844014108181,-1.02033972740173,1.40474113821983,,,,0.000700218701458907,0.000873359258360941
512441.635729689,0.255799811973702,5.18562089337242E-05,5.18562089337242E-08,0.385604321956634,-1.02035880088806,1.40596312284469,,,,0.000711333455880991,0.000884474012783025
512441.640329681,0.26039980398491,5.27879984014564E-05,5.27879984014564E-08,0.386673599481582,-1.02056884765625,1.40724244713783,,,,0.000724115204409553,0.000897255761311587
512441.644129674,0.264199797005858,5.35577581491735E-05,5.35577581491735E-08,0.387685567140579,-1.02053070068359,1.40821626782417,,,,0.00073467432303393,0.000907814879935964
512441.648129668,0.268199791025836,5.43680007590187E-05,5.43680007590187E-08,0.388812124729156,-1.02054977416992,1.40936189889907,,,,0.000745788762126457,0.000918929319028491
512441.65212967,0.272199793020263,5.51782536374198E-05,5.51782536374198E-08,0.389824092388153,-1.02045428752899,1.41027837991714,,,,0.000756903342077089,0.000930043898979123
512441.656529669,0.276599792006891,5.60695202979776E-05,5.60695202979776E-08,0.3908551633358,-1.02049243450164,1.41134759783744,,,,0.00076912922219448,0.000942269779096514
512441.660929668,0.280999790993519,5.696080605189E-05,5.696080605189E-08,0.391905337572097,-1.02066433429718,1.41256967186927,,,,0.000781355364223457,0.000954495921125491
512441.666329667,0.286399789969437,5.80546464522679E-05,5.80546464522679E-08,0.393050968647003,-1.02066433429718,1.41371530294418,,,,0.000796360033638792,0.000969500590540826
512441.670729659,0.290799781971145,5.89459382163153E-05,5.89459382163153E-08,0.39408203959465,-1.02058792114257,1.41466996073722,,,,0.000808586258111321,0.000981726815013355
512441.675329651,0.295399773982354,5.98777181473043E-05,5.98777181473043E-08,0.395132213830947,-1.02053070068359,1.41566291451454,,,,0.000821367875820361,0.000994508432722395
512441.681529645,0.30159976799041,6.11336076988114E-05,6.11336076988114E-08,0.396163284778595,-1.0206834077835,1.4168466925621,,,,0.000838595441684656,0.00101173599858669
512441.686129646,0.306199769023806,6.20654017693466E-05,6.20654017693466E-08,0.39723253250122,-1.02077889442443,1.41801142692565,,,,0.000851377253351805,0.00102451781025384
512441.691129645,0.311199767980725,6.30782184766398E-05,6.30782184766398E-08,0.398263603448867,-1.02064514160156,1.41890874505043,,,,0.000865270486648008,0.00103841104355004
512441.696929644,0.316999766975641,6.42531016601456E-05,6.42531016601456E-08,0.399371057748794,-1.0206834077835,1.4200544655323,,,,0.000881386854048637,0.00105452741095067
512441.703329633,0.323399755987339,6.55494991772704E-05,6.55494991772704E-08,0.400383025407791,-1.0208933353424,1.42127636075019,,,,0.00089917008473622,0.00107231064163825
512441.709129624,0.329199747007806,6.67243600851959E-05,6.67243600851959E-08,0.40139502286911,-1.02079796791076,1.42219299077987,,,,0.000915286146573332,0.00108842670347537
512441.714529623,0.334599745983724,6.78181863394048E-05,6.78181863394048E-08,0.402406990528106,-1.02081704139709,1.4232240319252,,,,0.000930290621939709,0.00110343117884174
512441.721729621,0.341799743997399,6.92766552766164E-05,6.92766552766164E-08,0.403418958187103,-1.02095067501068,1.42436963319778,,,,0.000950297054548922,0.00112343761145096
512441.727729622,0.347799744980875,7.04920298026667E-05,7.04920298026667E-08,0.40445002913475,-1.0208933353424,1.42534336447715,,,,0.000966968858747143,0.00114010941564918
512441.733929611,0.353999733983073,7.17479207747512E-05,7.17479207747512E-08,0.405500203371048,-1.0208933353424,1.42639353871345,,,,0.000984196444098096,0.00115733700100013
512441.742529598,0.362599721003789,7.34899574650658E-05,7.34899574650658E-08,0.406626760959625,-1.02110338211059,1.42773014307022,,,,0.00100809269499404,0.00118123325189608
512441.749929599,0.369999721995555,7.49889188210169E-05,7.49889188210169E-08,0.407657831907272,-1.02104616165161,1.42870399355888,,,,0.00102865457916347,0.0012017951360655
512441.7573296,0.37739972298732,7.64878943165143E-05,7.64878943165143E-08,0.408688902854919,-1.02106523513793,1.42975413799285,,,,0.00104921665729101,0.00122235721419304
512441.765929587,0.385999710008036,7.82299415965875E-05,7.82299415965875E-08,0.409739047288894,-1.02123701572418,1.43097606301307,,,,0.00107311305345113,0.00124625361035317
512441.774129575,0.394199697999284,7.98909765018357E-05,7.98909765018357E-08,0.410751044750213,-1.02110338211059,1.4318544268608,,,,0.00109589816874946,0.0012690387256515
512441.784129575,0.404199698008597,8.19166131019592E-05,8.19166131019592E-08,0.411839395761489,-1.02129435539245,1.43313375115394,,,,0.00112368467903922,0.00129682523594126
512441.791929572,0.411999695003033,8.34966144098175E-05,8.34966144098175E-08,0.412946850061416,-1.02119886875152,1.43414571881294,,,,0.00114535822235689,0.00131849877925893
512441.803329553,0.42339967598673,8.5805813084046E-05,8.5805813084046E-08,0.413996994495391,-1.02131342887878,1.43531042337417,,,,0.00117703447303218,0.00135017502993422
512441.811329552,0.431399674969725,8.74263177514076E-05,8.74263177514076E-08,0.41500899195671,-1.02129435539245,1.43630334734916,,,,0.00119926361798913,0.00137240417489116
512441.823329549,0.443399671989027,8.98570993343989E-05,8.98570993343989E-08,0.416020959615707,-1.02144706249237,1.43746802210807,,,,0.0012326076726255,0.00140574822952753
512441.832129534,0.452199656981975,9.1639666252666E-05,9.1639666252666E-08,0.417090207338333,-1.02137064933776,1.4384608566761,,,,0.00125705989372656,0.00143020045062859
512441.845529529,0.465599651972298,9.43540131052335E-05,9.43540131052335E-08,0.418102204799652,-1.02163791656494,1.43974012136459,,,,0.00129429373258208,0.00146743428948411
512441.855929523,0.475999646005221,9.64606542885303E-05,9.64606542885303E-08,0.419114172458648,-1.02144706249237,1.44056123495101,,,,0.00132319141685227,0.0014963319737543
512441.868529505,0.488599627977237,9.90129629439777E-05,9.90129629439777E-08,0.420183449983596,-1.02159976959228,1.44178321957588,,,,0.00135820250951958,0.00153134306642162
512441.883529506,0.503599628980737,0.000102051398929622,1.02051398929622E-07,0.421252697706222,-1.02169525623321,1.44294795393943,,,,0.0013998820154955,0.00157302257239753
512441.894329488,0.514399610983674,0.0001042391026881,1.042391026881E-07,0.422283768653869,-1.02156162261962,1.44384539127349,,,,0.00142989166924691,0.00160303222614895
512441.909729482,0.529799605021253,0.000107358609726031,1.07358609726031E-07,0.423295736312866,-1.02159976959228,1.44489550590515,,,,0.00147268326098808,0.00164582381789011
512441.925529465,0.545599588018376,0.000110559113224347,1.10559113224347E-07,0.424384087324142,-1.02180981636047,1.44619390368461,,,,0.00151658591528597,0.001689726472188
512441.940529459,0.56059958197875,0.000113597562985287,1.13597562985287E-07,0.425415158271789,-1.0219053030014,1.44732046127319,,,,0.00155826561022342,0.00173140616712545
512441.954929444,0.574999567004852,0.00011651448250148,1.1651448250148E-07,0.426427155733108,-1.02188611030578,1.44831326603889,,,,0.00159827822361427,0.0017714187805163
512441.971329435,0.591399558004923,0.00011983651908901,1.1983651908901E-07,0.427534610033035,-1.0218288898468,1.44936349987983,,,,0.0016438479984775,0.00181698855537954
512441.991129413,0.611199536011554,0.000123847295973036,1.23847295973036E-07,0.428603857755661,-1.02192437648773,1.45052823424339,,,,0.00169886551403342,0.00187200607093545
512442.010929409,0.630999532004353,0.000127858062257369,1.27858062257369E-07,0.429615825414657,-1.02188611030578,1.45150193572044,,,,0.00175388288418888,0.00192702344109091
512442.029929389,0.649999512010254,0.00013170676027735,1.3170676027735E-07,0.430704176425933,-1.02205801010131,1.45276218652725,,,,0.00180667709571125,0.00197981765261328
512442.05112937,0.671199492993765,0.00013600115406182,1.3600115406182E-07,0.431735277175903,-1.02224886417388,1.45398414134979,,,,0.00186558510372867,0.0020387256606307
512442.071529366,0.691599489015061,0.000140133475336763,1.40133475336763E-07,0.432785421609878,-1.0221152305603,1.45490065217018,,,,0.00192226989488015,0.00209541045178219
512442.092129343,0.712199466011953,0.000144306288666195,1.44306288666195E-07,0.433816492557525,-1.02224886417388,1.45606535673141,,,,0.00197951013259527,0.0021526506894973
512442.118529319,0.738599442003761,0.000149653915183411,1.49653915183411E-07,0.434847563505172,-1.02243983745575,1.45728740096092,,,,0.00205286577755022,0.00222600633445225
512442.1451293,0.765199423010927,0.000155042129172219,1.55042129172219E-07,0.43591684103012,-1.02261161804199,1.45852845907211,,,,0.00212677817794539,0.00229991873484743
512442.168129291,0.788199413975235,0.000159701107316547,1.59701107316547E-07,0.436966985464096,-1.02261161804199,1.45957860350608,,,,0.00219068734316251,0.00236382790006455
512442.195129274,0.815199396980461,0.000165170308248864,1.65170308248864E-07,0.437978982925415,-1.02251613140106,1.46049511432647,,,,0.00226571067556741,0.00243885123246944
512442.226129251,0.846199374005664,0.000171449798835648,1.71449798835648E-07,0.439029157161712,-1.02272617816925,1.46175533533096,,,,0.00235184909239572,0.00252498964929775
512442.252329226,0.872399348998442,0.00017675696264704,1.7675696264704E-07,0.440079301595687,-1.02263069152832,1.462709993124,,,,0.00242464969337503,0.00259779025027707
512442.287529204,0.907599326979835,0.000183887214776542,1.83887214776542E-07,0.441110372543335,-1.02282166481018,1.46393203735351,,,,0.00252245836456162,0.00269559892146365
512442.31812918,0.938199302996509,0.000190085625423325,1.90085625423325E-07,0.442122370004653,-1.02285981178283,1.46498218178749,,,,0.00260748457370816,0.0027806251306102
512442.350929157,0.970999279990792,0.000196729741712411,1.96729741712411E-07,0.443191617727279,-1.02301251888275,1.46620413661003,,,,0.00269862471484789,0.00287176527174992
512442.388529125,1.00859924801625,0.000204346173094378,2.04346173094378E-07,0.444222688674926,-1.02305078506469,1.46727347373962,,,,0.00280310251158269,0.00297624306848472
512442.428929086,1.04899920901516,0.000212529761526319,2.12529761526319E-07,0.445349246263504,-1.02324163913726,1.46859088540077,,,,0.0029153602404159,0.00308850079731793
512442.469129063,1.08919918601168,0.000220672823276784,2.20672823276784E-07,0.4463612139225,-1.02316534519195,1.46952655911445,,,,0.00302706204769251,0.00320020260459454
512442.510529037,1.13059915998019,0.000229058996379375,2.29058996379375E-07,0.447373181581497,-1.02327990531921,1.47065308690071,,,,0.00314209871576646,0.0033152392726685
512442.552128996,1.17219911899883,0.000237485751685169,2.37485751685169E-07,0.448385179042816,-1.02329897880554,1.47168415784835,,,,0.00325769206701192,0.00343083262391395
512442.601328971,1.22139909397811,0.000247451874527666,2.47451874527666E-07,0.449397146701812,-1.02354717254638,1.47294431924819,,,,0.00339440157102423,0.00356754212792626
512442.647728923,1.26779904600699,0.000256850844187869,2.56850844187869E-07,0.450409114360809,-1.02373802661895,1.47414714097976,,,,0.00352333119599272,0.00369647175289475
512442.694928902,1.31499902502401,0.000266411858452691,2.66411858452691E-07,0.451440185308456,-1.02368080615997,1.47512099146843,,,,0.00365448365504377,0.00382762421194581
512442.749928854,1.3699989769957,0.000277552926351626,2.77552926351626E-07,0.452452182769775,-1.0237762928009,1.47622847557067,,,,0.00380731037519377,0.00398045093209581
512442.806528807,1.42659892997472,0.000289018095056215,2.89018095056215E-07,0.453464150428772,-1.02404356002807,1.47750771045684,,,,0.00396458292258183,0.00413772347948386
512442.864728763,1.48479888599832,0.00030080730967058,3.0080730967058E-07,0.454495221376419,-1.02413892745971,1.47863414883613,,,,0.00412630054417805,0.00429944110108009
512442.915528737,1.53559886000585,0.000311097554133998,3.11097554133998E-07,0.455507189035415,-1.02411985397338,1.4796270430088,,,,0.00426745616096019,0.00444059671786223
512442.974328691,1.59439881402068,0.000323008312135934,3.23008312135934E-07,0.456519186496734,-1.02419626712799,1.48071545362472,,,,0.00443084104438867,0.0046039816012907
512443.048128631,1.66819875402143,0.000337957596583498,3.37957596583498E-07,0.457531154155731,-1.02431082725524,1.48184198141098,,,,0.00463590667467076,0.00480904723157279
512443.118328574,1.73839869699441,0.000352177513980203,3.52177513980203E-07,0.458562225103378,-1.02450168132782,1.48306390643119,,,,0.00483096726996163,0.00500410782686367
512443.190928527,1.81099864997668,0.000366883644650379,3.66883644650379E-07,0.459612399339675,-1.02459716796875,1.48420956730842,,,,0.00503269745748119,0.00520583801438323
512443.27152846,1.89159858302446,0.000383210414333476,3.83210414333476E-07,0.460662573575973,-1.02461624145507,1.48527881503105,,,,0.00525665863283232,0.00542979918973435
512443.354328408,1.97439853101969,0.000399982765906386,3.99982765906386E-07,0.46169364452362,-1.02482628822326,1.48651993274688,,,,0.00548673204261161,0.00565987259951364
512443.447728339,2.06779846199788,0.000418902263462543,4.18902263462543E-07,0.462743788957595,-1.02486443519592,1.48760822415351,,,,0.00574625875805958,0.00591939931496161
512443.530728272,2.15079839498503,0.000435715084764692,4.35715084764692E-07,0.463813066482543,-1.02501714229583,1.48883020877838,,,,0.00597688730815764,0.00615002786505968
512443.629928201,2.24999832396861,0.00045580946689513,4.5580946689513E-07,0.46482503414154,-1.02520811557769,1.49003314971923,,,,0.00625253041008409,0.00642567096698612
512443.732128124,2.35219824698288,0.000476511475480265,4.76511475480265E-07,0.465837031602859,-1.02516996860504,1.4910070002079,,,,0.0065365085799762,0.00670964913687823
512443.831328045,2.45139816799201,0.000496605817745129,4.96605817745129E-07,0.466868102550506,-1.02530360221862,1.49217170476913,,,,0.00681215113504978,0.00698529169195182
512443.936327969,2.55639809201239,0.000517875094367398,5.17875094367398E-07,0.467899173498153,-1.02553272247314,1.49343189597129,,,,0.00710391075949792,0.00727705131639995
512444.054127875,2.67419799801428,0.000541737393995126,5.41737393995126E-07,0.46891114115715,-1.02568542957305,1.4945965707302,,,,0.0074312399724983,0.00760438052940033
512444.173527792,2.793597914977,0.000565923626479175,5.65923626479175E-07,0.469961315393447,-1.02570450305938,1.49566581845283,,,,0.00776301270890501,0.00793615326580704
512444.31072769,2.93079781299457,0.000593715485314528,5.93715485314528E-07,0.471049666404724,-1.0258572101593,1.49690687656402,,,,0.00814424534039133,0.00831738589729337
512444.45032759,3.07039771298878,0.000621993545293808,6.21993545293808E-07,0.472080737352371,-1.02606725692749,1.49814799427986,,,,0.00853214739772028,0.00870528795462231
512444.59112748,3.21119760297006,0.000650514697545104,6.50514697545104E-07,0.473092705011367,-1.02623903751373,1.4993317425251,,,,0.00892338405411665,0.00909652461101869
512444.732527378,3.3525975010125,0.000679157465603616,6.79157465603616E-07,0.474181056022644,-1.02623903751373,1.50042009353637,,,,0.00931628896575605,0.00948942952265808
512444.897527247,3.51759737002431,0.000712580709129572,7.12580709129572E-07,0.475193053483963,-1.02652549743652,1.50171855092048,,,,0.00977476967255929,0.00994791022946132
512445.057727132,3.67779725498986,0.000745031593398915,7.45031593398915E-07,0.47622412443161,-1.02660179138183,1.50282591581344,,,,0.0102199121179549,0.010393052674857
512445.234327003,3.85439712600783,0.000780804596265157,7.80804596265157E-07,0.477274268865585,-1.02675449848175,1.50402876734733,,,,0.0107106254631709,0.0108837660200729
512445.42932685,4.04939697298687,0.000820304711825317,8.20304711825317E-07,0.478286266326904,-1.02690732479095,1.50519359111785,,,,0.011252465182789,0.011425605739691
512445.613726716,4.23379683902022,0.000857657800840007,8.57657800840007E-07,0.4792982339859,-1.02700269222259,1.50630092620849,,,,0.0117648532351167,0.0119379937920187
512445.812326572,4.43239669501782,0.000897887355188528,8.97887355188528E-07,0.480310201644897,-1.02711725234985,1.50742745399475,,,,0.0123166989737795,0.0124898395306816
512446.030926409,4.65099653200014,0.00094216814300749,9.4216814300749E-07,0.481322199106216,-1.02725088596344,1.50857308506965,,,,0.0129241171880314,0.0130972577449334
512446.251726246,4.87179636897054,0.000986894509855244,9.86894509855244E-07,0.482353270053863,-1.02748000621795,1.50983327627182,,,,0.0135376475974656,0.0137107881543677
512446.49092606,5.11099618300796,0.00103534807076388,1.03534807076388E-06,0.48336523771286,-1.02769005298614,1.511055290699,,,,0.0142023054974469,0.0143754460543489
512446.733125887,5.35319600999355,0.00108440913833512,1.08440913833512E-06,0.484491795301437,-1.02784276008606,1.51233455538749,,,,0.0148752968221553,0.0150484373790573
512447.01312568,5.63319580297684,0.00114112728942102,1.14112728942102E-06,0.485561043024063,-1.02784276008606,1.51340380311012,,,,0.0156533235860222,0.0158264641429243
512447.312325455,5.9323955780128,0.00120173460548453,1.20173460548453E-06,0.486573010683059,-1.0281673669815,1.51474037766456,,,,0.016484699663711,0.016657840220613
512447.612125229,6.23219535197131,0.0012624632803897,1.2624632803897E-06,0.487642288208007,-1.02822458744049,1.51586687564849,,,,0.017317740471738,0.01749088102864
512447.930924988,6.55099511099979,0.00132704091101222,1.32704091101222E-06,0.488654255867004,-1.02849185466766,1.51714611053466,,,,0.0182035790262307,0.0183767195831328
512448.273524731,6.89359485398745,0.00139643946927785,1.39643946927785E-06,0.489799886941909,-1.02870190143585,1.51850178837776,,,,0.0191555482754163,0.0193286888323184
512448.677124433,7.29719455598388,0.00147819460629423,1.47819460629423E-06,0.490811884403228,-1.02883553504943,1.51964741945266,,,,0.0202770179189881,0.0204501584758901
512449.035324173,7.65539429598721,0.00155075326265229,1.55075326265229E-06,0.491881132125854,-1.02887368202209,1.52075481414794,,,,0.0212723355645033,0.0214454761214053
512449.451123863,8.07119398599025,0.0016349791696767,1.6349791696767E-06,0.492912203073501,-1.02914094924926,1.52205315232276,,,,0.0224276978007778,0.0226008383576798
512449.853523567,8.47359369002516,0.00171649075594544,1.71649075594544E-06,0.49392420053482,-1.02927470207214,1.52319890260696,,,,0.0235458265561789,0.0237189671130809
512450.293523237,8.91359335999005,0.00180561927136116,1.80561927136116E-06,0.494936168193817,-1.02950370311737,1.52443987131118,,,,0.0247684399363671,0.0249415804932691
512450.77592287,9.3959929929697,0.00190333687896198,1.90333687896198E-06,0.495967239141464,-1.02963733673095,1.52560457587242,,,,0.0261088735111383,0.0262820140680403
512451.292922493,9.91299261600943,0.00200806319220529,2.00806319220529E-06,0.49697920680046,-1.02990472316741,1.52688392996788,,,,0.0275454484527475,0.0277185890096495
512451.752922148,10.3729922709754,0.00210124303453829,2.10124303453829E-06,0.497991204261779,-1.0298855304718,1.52787673473358,,,,0.0288236355903743,0.0289967761472764
512452.353721704,10.9737918269821,0.0022229432913661,2.2229432913661E-06,0.499060451984405,-1.03007650375366,1.52913695573806,,,,0.0304930492642812,0.0306661898211832
512452.97392124,11.5939913630136,0.00234857354149884,2.34857354149884E-06,0.500072419643402,-1.03030562400817,1.53037804365158,,,,0.0322163723113696,0.0323895128682716
512453.573520794,12.1935909169842,0.00247003144241703,2.47003144241703E-06,0.501122593879699,-1.03042018413543,1.53154277801513,,,,0.0338824614872021,0.0340556020441041
512454.251320286,12.8713904090109,0.00260732967131336,2.60732967131336E-06,0.502134561538696,-1.03057289123535,1.53270745277404,,,,0.0357658391126661,0.0359389796695682
512454.936519774,13.5565898970235,0.00274612626625432,2.74612626625432E-06,0.503146588802337,-1.03072559833526,1.5338721871376,,,,0.0376697704561635,0.0378429110130656
512455.653119239,14.2731893620221,0.00289128394648101,2.89128394648101E-06,0.504158556461334,-1.03089749813079,1.53505605459213,,,,0.0396609594853362,0.0398341000422382
512456.354918722,14.9749888450024,0.00303344429427716,3.03344429427716E-06,0.50517052412033,-1.03103113174438,1.53620165586471,,,,0.0416110328433081,0.0417841734002101
512457.198518093,15.8185882159742,0.00320432754840784,3.20432754840784E-06,0.506182491779327,-1.03127932548522,1.53746181726455,,,,0.0439551104033997,0.0441282509603018
512458.051317449,16.6713875720161,0.00337707423525386,3.37707423525386E-06,0.507213592529296,-1.03139388561248,1.53860747814178,,,,0.0463247494547855,0.0464978900116875
512458.95431678,17.5743869029684,0.0035599899217983,3.5599899217983E-06,0.508225560188293,-1.0315465927124,1.53977215290069,,,,0.0488338809574527,0.0490070215143547
512459.875316095,18.4953862180118,0.00374655201997028,3.74655201997028E-06,0.50923752784729,-1.03164196014404,1.54087948799133,,,,0.0513930318240093,0.0515661723809114
512460.833515375,19.4535854979767,0.00394064925264649,3.94064925264649E-06,0.510268628597259,-1.0318329334259,1.54210156202316,,,,0.0540555453037927,0.0542286858606948
512461.916514579,20.5365847019712,0.00416002642833193,4.16002642833193E-06,0.511299669742584,-1.03206205368042,1.543361723423,,,,0.0570648344078454,0.0572379749647474
512463.016913753,21.6369838760002,0.00438292811372213,4.38292811372213E-06,0.51231163740158,-1.03210020065307,1.54441183805465,,,,0.0601224706957768,0.0602956112526789
512464.217512858,22.8375829809811,0.00462612676920493,4.62612676920493E-06,0.51334273815155,-1.03221476078033,1.54555749893188,,,,0.0634585290700265,0.0636316696269285
512465.395511977,24.0155821000226,0.0048647480365071,4.8647480365071E-06,0.514411985874176,-1.03253936767578,1.54695135354995,,,,0.0667317974829506,0.0669049380398527
512466.659311042,25.2793811649899,0.00512074906752838,5.12074906752838E-06,0.515423953533172,-1.03269207477569,1.54811602830886,,,,0.0702434714338598,0.0704166119907619
512468.016110029,26.6361801520106,0.00539558854815363,5.39558854815363E-06,0.516435921192169,-1.03282570838928,1.54926162958145,,,,0.0740135603313255,0.0741867008882276
512469.495708924,28.115779047017,0.0056953024019632,5.6953024019632E-06,0.517467021942138,-1.03294026851654,1.55040729045867,,,,0.0781248614809767,0.0782980020378787
512470.899507875,29.5195779979695,0.00597966204545895,5.97966204545895E-06,0.518478989601135,-1.03311204910278,1.55159103870391,,,,0.082025542461714,0.0821986830186161
512472.198306918,30.8183770410251,0.00624275193843907,6.24275193843907E-06,0.519490957260131,-1.03320753574371,1.55269849300384,,,,0.0856344573174084,0.0858075978743104
512474.053505525,32.6735756479902,0.00661854890852504,6.61854890852504E-06,0.520502924919128,-1.03337931632995,1.55388224124908,,,,0.0907894226135122,0.0909625631704143
512475.637904353,34.2579744759714,0.00693949091739786,6.93949091739786E-06,0.521514952182769,-1.03345572948455,1.55497068166732,,,,0.0951919193058691,0.0953650598627712
512477.416303031,36.0363731539692,0.00729973050220145,7.29973050220145E-06,0.522545993328094,-1.03379940986633,1.55634540319442,,,,0.100133477396453,0.100306617953355
512479.253101659,37.8731717820047,0.00767180044035447,7.67180044035447E-06,0.523557960987091,-1.03383755683898,1.55739551782608,,,,0.105237317425987,0.105410457982889
512480.975900379,39.5959705020068,0.00802077701135476,8.02077701135476E-06,0.52458906173706,-1.03395211696624,1.5585411787033,,,,0.110024376013097,0.110197516569999
512483.035298841,41.6553689640132,0.00843793688927756,8.43793688927756E-06,0.525620102882385,-1.0339902639389,1.55961036682128,,,,0.115746733734946,0.115919874291848
512485.054897327,43.6749674499733,0.00884703444105055,8.84703444105055E-06,0.526632130146026,-1.03421938419342,1.56085151433944,,,,0.121358497133752,0.121531637690654
512487.273295674,45.8933657970047,0.00929640159026119,9.29640159026119E-06,0.527644097805023,-1.03433394432067,1.5619780421257,,,,0.127522655559138,0.12769579611604
512489.431294069,48.0513641919824,0.00973353387995892,9.73353387995892E-06,0.528656065464019,-1.03439128398895,1.56304734945297,,,,0.133518983264183,0.133692123821085
512491.649692415,50.2697625380242,0.0101829011393785,1.01829011393785E-05,0.529687106609344,-1.03462028503418,1.56430739164352,,,,0.139683143201351,0.139856283758253
512494.010290667,52.6303607900045,0.0106610733420948,1.06610733420948E-05,0.530718207359314,-1.03467762470245,1.56539583206176,,,,0.146242432676198,0.1464155732331
512496.310288947,54.9303590700147,0.0111269701631665,1.11269701631665E-05,0.531749248504638,-1.03484940528869,1.56659865379333,,,,0.152633335571557,0.152806476128459
512499.028086922,57.6481570450123,0.0116774991116888,1.16774991116888E-05,0.53276127576828,-1.03488755226135,1.56764882802963,,,,0.160185172999846,0.160358313556748
512501.666484963,60.2865550859715,0.0122119439335465,1.22119439335465E-05,0.533773243427276,-1.03496396541595,1.56873720884323,,,,0.167516377689252,0.167689518246154
512503.966483242,62.5865533649921,0.012677841243724,1.2677841243724E-05,0.534785211086273,-1.03519308567047,1.56997829675674,,,,0.173907287293882,0.174080427850784
512506.908081054,65.5281511769863,0.0132737025114231,1.32737025114231E-05,0.535797178745269,-1.03523123264312,1.57102841138839,,,,0.182080967234885,0.182254107791787
512509.788478913,68.4085490360158,0.013857166633937,1.3857166633937E-05,0.536809146404266,-1.03532671928405,1.57213586568832,,,,0.190084590314637,0.190257730871539
512512.466076909,71.0861470319796,0.0143995519826379,1.43995519826379E-05,0.537840247154235,-1.03540313243866,1.57324337959289,,,,0.197524718554704,0.197697859111606
512515.661274534,74.2813446570071,0.0150467839297983,1.50467839297983E-05,0.53887128829956,-1.03553676605224,1.5744080543518,,,,0.206403071739346,0.206576212296248
512518.74487223,77.364942352986,0.0156714089946515,1.56714089946515E-05,0.53990238904953,-1.03567039966583,1.57557278871536,,,,0.21497131679906,0.215144457355962
512521.860069911,80.4801400339929,0.0163024370846947,1.63024370846947E-05,0.540914356708526,-1.03572762012481,1.57664197683334,,,,0.223627394851779,0.223800535408681
512524.801267717,83.4213378399727,0.0168982180567085,1.68982180567085E-05,0.541926324367523,-1.03578495979309,1.57771128416061,,,,0.231799973343052,0.231973113899954
512528.14206523,86.7621353529976,0.0175749430242677,1.75749430242677E-05,0.542938292026519,-1.03589951992034,1.57883781194686,,,,0.241082894708748,0.24125603526565
512531.142062995,89.762133117998,0.0181826343687309,1.81826343687309E-05,0.543950319290161,-1.03603315353393,1.57998347282409,,,,0.249418852794663,0.249591993351565
512534.597460424,93.2175305470009,0.0188825733046531,1.88825733046531E-05,0.544962286949157,-1.03618586063385,1.581148147583,,,,0.259020209940372,0.259193350497274
512537.854258,96.4743281229748,0.0195422827657328,1.95422827657328E-05,0.546069741249084,-1.03612852096557,1.58219826221466,,,,0.268069722438036,0.268242862994938
512541.51445527,100.134525393019,0.0202837071958416,2.02837071958416E-05,0.547081708908081,-1.03628134727478,1.58336305618286,,,,0.278240153578074,0.278413294134976
512544.71145288,103.331523002998,0.0209313041445712,2.09313041445712E-05,0.548093676567077,-1.03624308109283,1.58433675765991,,,,0.287123513642952,0.287296654199854
512548.173050306,106.793120428978,0.0216324980677399,2.16324980677399E-05,0.549124777317047,-1.03637671470642,1.58550149202346,,,,0.296742085977228,0.29691522653413
512551.569247783,110.189317905984,0.0223204453090926,2.23204453090926E-05,0.550136744976043,-1.03635764122009,1.58649438619613,,,,0.306178947998527,0.306352088555429
512555.070045176,113.690115299018,0.0230295821257299,2.30295821257299E-05,0.55114871263504,-1.03652954101562,1.58767825365066,,,,0.315906476347461,0.316079616904363
512558.53104259,117.151112712978,0.0237306561402479,2.37306561402479E-05,0.552179753780365,-1.0365867614746,1.58876651525497,,,,0.325523403844278,0.325696544401181
512562.027439983,120.647510105977,0.0244389028713206,2.44389028713206E-05,0.553268134593963,-1.03643405437469,1.58970218896865,,,,0.335238722514686,0.335411863071588
512565.630237305,124.25030742801,0.025168702013731,2.5168702013731E-05,0.55428010225296,-1.03662490844726,1.59090501070022,,,,0.345249684687668,0.34542282524457
512569.066634743,127.686704866006,0.0258647933790087,2.58647933790087E-05,0.555311203002929,-1.03668224811554,1.59199345111846,,,,0.354798263086539,0.354971403643441
512572.646032068,131.266102191003,0.0265898506576716,2.65898506576716E-05,0.556342244148254,-1.03689229488372,1.59323453903198,,,,0.36474417911758,0.364917319674482
512576.085829503,134.705899626017,0.0272866300504042,2.72866300504042E-05,0.557354211807251,-1.03685402870178,1.59420824050903,,,,0.374302195478796,0.374475336035698
512579.404627037,138.024697159999,0.0279588999764621,2.79588999764621E-05,0.55838531255722,-1.03694951534271,1.59533482789993,,,,0.383524005164089,0.383697145720991
512582.999624359,141.619694482011,0.0286871205431686,2.86871205431686E-05,0.559416353702545,-1.03704500198364,1.59646135568618,,,,0.393513313349364,0.393686453906266
512586.364421848,144.984491970972,0.0293687111267944,2.93687111267944E-05,0.560428380966186,-1.03706407546997,1.59749245643615,,,,0.402862978419676,0.403036118976578
512589.56321947,148.183289592969,0.0300166738220354,3.00166738220354E-05,0.561459422111511,-1.03717863559722,1.59863805770874,,,,0.411751355583476,0.411924496140378
512592.981616925,151.60168704798,0.0307091179186205,3.07091179186205E-05,0.562509596347808,-1.03725492954254,1.59976452589035,,,,0.421249902861735,0.421423043418637
512596.281814464,154.901884587016,0.0313776208020084,3.13776208020084E-05,0.563578844070434,-1.03725492954254,1.60083377361297,,,,0.430420038436329,0.430593178993231
512599.859611798,158.479681921017,0.0321023571115864,3.21023571115864E-05,0.564609944820404,-1.03731226921081,1.60192221403121,,,,0.440361551599265,0.440534692156167
512602.862209558,161.482279681019,0.0327105790997975,3.27105790997975E-05,0.565679192543029,-1.03721678256988,1.60289597511291,,,,0.448704788748937,0.448877929305839
512606.362806949,164.982877072005,0.0334196760093636,3.34196760093636E-05,0.566710233688354,-1.03731226921081,1.60402250289917,,,,0.45843176967577,0.458604910232672
512609.522004593,168.142074715986,0.0340596171357664,3.40596171357664E-05,0.567779541015625,-1.03738868236541,1.60516822338104,,,,0.467210111601734,0.467383252158636
512612.546202346,171.166272468981,0.0346722133358253,3.46722133358253E-05,0.568829655647277,-1.03750312328338,1.60633277893066,,,,0.475613351657412,0.475786492214314
512615.720199982,174.340270104993,0.0353151536410384,3.53151536410384E-05,0.569860756397247,-1.03750312328338,1.60736387968063,,,,0.484432834582145,0.484605975139047
512618.482197925,177.10226804798,0.0358746367207864,3.58746367207864E-05,0.570872724056243,-1.03740775585174,1.60828047990799,,,,0.492107499599265,0.492280640156167
512621.465795698,180.085865820991,0.0364790066580573,3.64790066580573E-05,0.57188469171524,-1.037522315979,1.60940700769424,,,,0.500397896543996,0.500571037100898
512624.146193698,182.766263820988,0.0370219596552617,3.70219596552617E-05,0.572896659374237,-1.03757953643798,1.61047619581222,,,,0.507845811457637,0.508018952014539
512626.9683916,185.588461723004,0.037593636227164,3.7593636227164E-05,0.573908686637878,-1.03761768341064,1.61152637004852,,,,0.515687739741619,0.515860880298521
512629.842989458,188.463059581001,0.038175927492953,3.8175927492953E-05,0.574939727783203,-1.03748404979705,1.61242377758026,,,,0.523675274251756,0.523848414808658
512632.547187443,191.167257566005,0.0387237010682192,3.87237010682192E-05,0.575951695442199,-1.03754138946533,1.61349308490753,,,,0.531189315064735,0.531362455621637
512635.210185453,193.830255576002,0.0392631291552914,3.92631291552914E-05,0.576963722705841,-1.03756046295166,1.6145241856575,,,,0.538588877301665,0.538762017858567
512637.71218359,196.332253712986,0.0397699434255262,3.97699434255262E-05,0.577975690364837,-1.03750312328338,1.61547881364822,,,,0.545541062078549,0.545714202635451
512640.292581677,198.912651799968,0.0402926392823126,4.02926392823126E-05,0.578987658023834,-1.03754138946533,1.61652904748916,,,,0.552711101266291,0.552884241823193
512642.751179842,201.371249964985,0.0407906631417804,4.07906631417804E-05,0.580037832260131,-1.0374459028244,1.61748373508453,,,,0.559542704276823,0.559715844833725
512645.291977953,203.912048075988,0.0413053385073046,4.13053385073046E-05,0.581068873405456,-1.03761768341064,1.6186865568161,,,,0.566602723008294,0.566775863565196
512647.652776187,206.272846309992,0.0417835521361695,4.17835521361695E-05,0.582080841064453,-1.037522315979,1.61960315704345,,,,0.573162580743066,0.573335721299968
512649.953574474,208.573644597025,0.0422496117594275,4.22496117594275E-05,0.583111941814422,-1.03754138946533,1.62065333127975,,,,0.579555716864575,0.579728857421477
512652.174972817,210.795042940008,0.0426995876344111,4.26995876344111E-05,0.584123909473419,-1.03757953643798,1.6217034459114,,,,0.585728225437738,0.58590136599464
512654.37657118,212.996641303005,0.0431455533406569,4.31455533406569E-05,0.585155010223388,-1.03754138946533,1.62269639968872,,,,0.591845724837543,0.592018865394445
512656.533569574,215.153639697004,0.0435824844202631,4.35824844202631E-05,0.586205184459686,-1.03746497631073,1.62367016077041,,,,0.597839292459027,0.598012433015929
512658.740167923,217.360238045978,0.0440294617945386,4.40294617945386E-05,0.587217152118682,-1.03759860992431,1.62481576204299,,,,0.603970669335235,0.604143809892137
512660.715366455,219.335436578025,0.0444295654750698,4.44295654750698E-05,0.588248193264007,-1.0373694896698,1.6256176829338,,,,0.609459060014675,0.609632200571577
512662.679364986,221.299435109016,0.0448274000491069,4.48274000491069E-05,0.589260160923004,-1.03750312328338,1.62676328420639,,,,0.614916324404759,0.615089464961661
512664.578963577,223.199033699988,0.0452121901351611,4.52121901351611E-05,0.590272188186645,-1.03738868236541,1.62766087055206,,,,0.620194652059823,0.620367792616725
512666.457562174,225.077632297005,0.0455927262469894,4.55927262469894E-05,0.591284155845642,-1.03740775585174,1.62869191169738,,,,0.625414626158977,0.625587766715879
512668.27956082,226.899630943022,0.0459617969908118,4.59617969908118E-05,0.592296123504638,-1.03733134269714,1.62962746620178,,,,0.630477324976842,0.630650465533744
512670.121359447,228.741429570015,0.0463348785733779,4.63348785733779E-05,0.593327164649963,-1.03742682933807,1.63075399398803,,,,0.635595042158819,0.635768182715721
512671.821158189,230.441228311975,0.0466791961831483,4.66791961831483E-05,0.594358265399932,-1.03725492954254,1.63161319494247,,,,0.640318191812734,0.640491332369636
512673.519956912,232.14002703497,0.0470233116510014,4.70233116510014E-05,0.595389306545257,-1.03735041618347,1.63273972272872,,,,0.645038568600842,0.645211709157744
512675.240955628,233.861025750986,0.0473719240637819,4.73719240637819E-05,0.596420407295227,-1.03727412223815,1.63369452953338,,,,0.649820631876295,0.649993772433197
512676.720354533,235.340424655995,0.0476715966139833,4.76715966139833E-05,0.597451508045196,-1.03727412223815,1.63472563028335,,,,0.653931366446959,0.654104507003861
512678.400953276,237.021023399022,0.0480120252294507,4.80120252294507E-05,0.598463475704193,-1.03725492954254,1.63571840524673,,,,0.658601169128268,0.65877430968517
512679.920352149,238.540422271995,0.0483198001548648,4.83198001548648E-05,0.59951364994049,-1.03717863559722,1.63669228553772,,,,0.662823047391835,0.662996187948737
512681.342751088,239.962821211026,0.0486079259812004,4.86079259812004E-05,0.600525617599487,-1.03710222244262,1.63762784004211,,,,0.66677539068862,0.666948531245522
512682.765350028,241.385420150997,0.0488960920878284,4.88960920878284E-05,0.601556658744812,-1.03717863559722,1.63873529434204,,,,0.670728286527139,0.670901427084041
512684.303348876,242.923418999009,0.0492076337303652,4.92076337303652E-05,0.602568626403808,-1.03712129592895,1.63968992233276,,,,0.675001834435737,0.675174974992639
512685.582947924,244.203018046974,0.0494668333145976,4.94668333145976E-05,0.60358065366745,-1.03704500198364,1.64062565565109,,,,0.678557384288033,0.678730524844935
512686.903946943,245.524017065996,0.0497344191708498,4.97344191708498E-05,0.604649901390075,-1.03704500198364,1.64169490337371,,,,0.682227972165292,0.682401112722194
512688.246545942,246.866616064974,0.050006381452524,5.0006381452524E-05,0.605661869049072,-1.03698766231536,1.64264953136444,,,,0.685958593313087,0.686131733869989
512689.467545034,248.087615157012,0.0502537116827733,5.02537116827733E-05,0.606673836708068,-1.03710222244262,1.64377605915069,,,,0.689351326238317,0.689524466795219
512690.690544125,249.310614247981,0.0505014469194909,5.05014469194909E-05,0.607685804367065,-1.03683495521545,1.64452075958252,,,,0.692749614807831,0.692922755364733
512691.810743288,250.430813411018,0.0507283586476114,5.07283586476114E-05,0.608697831630706,-1.03687310218811,1.64557093381881,,,,0.695862258540623,0.696035399097525
512692.973942426,251.594012548972,0.0509639806763993,5.09639806763993E-05,0.609728872776031,-1.03675854206085,1.64648741483688,,,,0.699094385135793,0.699267525692695
512694.149541541,252.769611664,0.0512021138867371,5.12021138867371E-05,0.610740840435028,-1.03683495521545,1.64757579565048,,,,0.702360958665804,0.702534099222706
512695.132540821,253.752610943979,0.0514012332437071,5.14012332437071E-05,0.611771941184997,-1.03677773475647,1.64854967594146,,,,0.705092362739466,0.705265503296368
512696.23593999,254.85601011297,0.0516247415432532,5.16247415432532E-05,0.612802982330322,-1.03668224811554,1.64948523044586,,,,0.708158320209235,0.708331460766137
512697.236339245,255.856409367989,0.051827385986093,5.1827385986093E-05,0.613814949989318,-1.0365867614746,1.65040171146392,,,,0.710938079370274,0.711111219927176
512698.276738469,256.896808592021,0.0520381330962578,5.20381330962578E-05,0.614884257316589,-1.03670132160186,1.65158557891845,,,,0.713828986231246,0.714002126788148
512699.254137745,257.874207868008,0.0522361182747649,5.22361182747649E-05,0.615896224975585,-1.03675854206085,1.65265476703643,,,,0.716544832301302,0.716717972858204
512700.195737049,258.815807171981,0.0524268525830308,5.24268525830308E-05,0.616946399211883,-1.03662490844726,1.65357130765914,,,,0.719161215130738,0.71933435568764
512701.08033638,259.700406502991,0.0526060404068264,5.26060404068264E-05,0.617977440357208,-1.03662490844726,1.65460234880447,,,,0.721619209970184,0.721792350527086
512702.003135697,260.623205819982,0.0527929655785395,5.27929655785395E-05,0.619008541107177,-1.03643405437469,1.65544259548187,,,,0.724183341269403,0.724356481826305
512702.864335048,261.48440517101,0.0529674139564964,5.29674139564964E-05,0.620077788829803,-1.03649127483367,1.65656906366348,,,,0.726576323134381,0.726749463691283
512703.720134416,262.34020453901,0.0531407682980001,0.0000531407682980001,0.621127963066101,-1.03652954101562,1.65765750408172,,,,0.728954297640605,0.729127438197507
512704.524733811,263.144803933974,0.0533037508673005,5.33037508673005E-05,0.622178137302398,-1.03628134727478,1.65845948457717,,,,0.731189998179705,0.731363138736607
512705.325733222,263.945803345006,0.0534660049219396,5.34660049219396E-05,0.623190104961395,-1.03643405437469,1.65962415933609,,,,0.733415705376401,0.733588845933303
512706.10693264,264.727002763015,0.0536242475911445,5.36242475911445E-05,0.624259352684021,-1.03637671470642,1.66063606739044,,,,0.735586386709801,0.735759527266703
512706.869932065,265.490002188017,0.0537788034021788,5.37788034021788E-05,0.625271320343017,-1.03633856773376,1.66160988807678,,,,0.737706493857048,0.73787963441395
512707.58853153,266.208601652994,0.0539243654243482,5.39243654243482E-05,0.626302421092987,-1.03620493412017,1.66250735521316,,,,0.739703229414927,0.739876369971829
512708.274331016,266.894401138998,0.0540632834652066,5.40632834652066E-05,0.627333462238311,-1.0362240076065,1.66355746984481,,,,0.741608826683218,0.74178196724012
512708.930530528,267.550600651011,0.0541962059082819,5.41962059082819E-05,0.628402709960937,-1.03618586063385,1.66458857059478,,,,0.743432179811823,0.743605320368725
512709.61373002,268.233800143003,0.0543345977442761,5.43345977442761E-05,0.629414737224578,-1.03618586063385,1.66560059785842,,,,0.745330558906394,0.745503699463296
512710.234729562,268.85479968501,0.0544603901164167,5.44603901164167E-05,0.630426704883575,-1.03614771366119,1.66657441854476,,,,0.747056105849338,0.747229246406239
512710.773129154,269.393199276994,0.0545694507118,0.0000545694507118,0.631438672542572,-1.03605222702026,1.66749089956283,,,,0.748552135964335,0.748725276521237
512711.435128666,270.055198788992,0.0547035484852691,5.47035484852691E-05,0.632450640201568,-1.03589951992034,1.66835016012191,,,,0.750391611594912,0.750564752151814
512711.994728247,270.614798369992,0.0548169036493135,5.48169036493135E-05,0.633462607860565,-1.03605222702026,1.66951483488082,,,,0.751946552116783,0.752119692673685
512712.537327851,271.157397973991,0.0549268153983387,5.49268153983387E-05,0.634474635124206,-1.03597581386566,1.67045044898986,,,,0.753454257864728,0.75362739842163
512713.101327433,271.721397556015,0.0550410619467463,5.50410619467463E-05,0.635486602783203,-1.03595674037933,1.67144334316253,,,,0.755021425881294,0.755194566438196
512713.620327036,272.24039715901,0.0551461930840677,5.51461930840677E-05,0.636517643928527,-1.03589951992034,1.67241716384887,,,,0.756463553965263,0.756636694522165
512714.139926653,272.759996776003,0.0552514455241825,5.52514455241825E-05,0.637548744678497,-1.0358612537384,1.6734099984169,,,,0.757907346010734,0.758080486567636
512714.621126292,273.24119641498,0.0553489195920891,5.53489195920891E-05,0.638598918914794,-1.03589951992034,1.67449843883514,,,,0.759244438848959,0.759417579405861
512715.13852591,273.758596032974,0.0554537264486253,5.54537264486253E-05,0.639629960060119,-1.03580403327941,1.67543399333953,,,,0.760682118636835,0.760855259193737
512715.579725578,274.199795701017,0.0555430979551739,5.55430979551739E-05,0.640641927719116,-1.03584218025207,1.67648410797119,,,,0.761908065228723,0.762081205785625
512716.04172524,274.661795363005,0.0556366827449169,5.56366827449169E-05,0.641653895378112,-1.03578495979309,1.6774388551712,,,,0.763191807200506,0.763364947757408
512716.482124909,275.102195031999,0.0557258920937677,5.57258920937677E-05,0.642665922641754,-1.03572762012481,1.67839354276657,,,,0.764415529406964,0.764588669963866
512716.902724592,275.522794715012,0.0558110904014541,5.58110904014541E-05,0.643696963787078,-1.03561305999755,1.67931002378463,,,,0.765584230472622,0.765757371029524
512717.323524285,275.943594407989,0.0558963293418122,5.58963293418122E-05,0.644728064537048,-1.03563213348388,1.68036019802093,,,,0.766753488913748,0.76692662947065
512717.721123985,276.341194108012,0.0559768688604931,5.59768688604931E-05,0.645740032196044,-1.03559398651123,1.68133401870727,,,,0.767858283408685,0.768031423965587
512718.105123702,276.725193824968,0.0560546534395714,5.60546534395714E-05,0.646751999855041,-1.03561305999755,1.6823650598526,,,,0.768925287236919,0.769098427793821
512718.485323414,277.105393536971,0.0561316682973702,5.61316682973702E-05,0.647763967514038,-1.03568947315216,1.68345344066619,,,,0.769981732474214,0.770154873031116
512718.864323128,277.484393251012,0.0562084399055507,5.62084399055507E-05,0.648775935173034,-1.0356513261795,1.68442726135253,,,,0.771034840954056,0.771207981510958
512719.187522892,277.807593015023,0.0562739083909823,5.62739083909823E-05,0.649787962436676,-1.03561305999755,1.68540102243423,,,,0.771932899739126,0.772106040296028
512719.545922625,278.165992747992,0.0563465070946945,5.63465070946945E-05,0.650799930095672,-1.03551769256591,1.68631762266159,,,,0.772928766731063,0.773101907287965
512719.886322375,278.506392497977,0.0564154595811201,5.64154595811201E-05,0.651811897754669,-1.03547942638397,1.68729132413864,,,,0.773874617024967,0.774047757581869
512720.206522129,278.826592252008,0.0564803202658825,5.64803202658825E-05,0.652862071990966,-1.03553676605224,1.68839883804321,,,,0.774764338352298,0.7749374789092
512720.526921891,279.146992014023,0.0565452217491335,5.65452217491335E-05,0.653874039649963,-1.0354984998703,1.68937253952026,,,,0.775654619329678,0.77582775988658
512720.829121667,279.449191790016,0.056606436543617,5.6606436543617E-05,0.654924213886261,-1.03538393974304,1.6903081536293,,,,0.776494328444678,0.77666746900158
512721.129121447,279.749191569979,0.0566672057653169,5.66672057653169E-05,0.655936181545257,-1.03530764579772,1.69124382734298,,,,0.777327925450163,0.777501066007065
512721.409921238,280.029991361022,0.0567240856432583,5.67240856432583E-05,0.656986355781555,-1.03534579277038,1.69233214855194,,,,0.778108170689414,0.778281311246316
512721.690321028,280.310391150997,0.0567808846461806,5.67808846461806E-05,0.657998323440551,-1.03525030612945,1.69324862957,,,,0.77888730653197,0.779060447088872
512721.967720819,280.587790941994,0.0568370759470727,5.68370759470727E-05,0.659010291099548,-1.0352885723114,1.69429886341095,,,,0.779658106269859,0.779831246826761
512722.230320628,280.850390750973,0.0568902692789932,5.68902692789932E-05,0.660022258758544,-1.03542220592498,1.69544446468353,,,,0.780387781604845,0.780560922161747
512722.471520446,281.091590569005,0.056939127772722,5.6939127772722E-05,0.661053359508514,-1.03525030612945,1.69630366563797,,,,0.781057994138848,0.78123113469575
512722.728120259,281.348190382007,0.0569911056653393,5.69911056653393E-05,0.662084400653839,-1.03534579277038,1.69743019342422,,,,0.78177099678106,0.781944137337962
512722.971320074,281.591390196991,0.0570403691315916,5.70403691315916E-05,0.66309642791748,-1.03532671928405,1.69842314720153,,,,0.782446764493712,0.782619905050614
512723.192919911,281.812990033999,0.057085257179694,5.7085257179694E-05,0.664108395576477,-1.03513574600219,1.69924414157867,,,,0.783062512753004,0.783235653309906
512723.413519749,282.033589872008,0.0571299427696499,5.71299427696499E-05,0.665158569812774,-1.03525030612945,1.70040887594223,,,,0.783675483808641,0.783848624365543
512723.651919563,282.271989686007,0.0571782341559397,5.71782341559397E-05,0.666170537471771,-1.03521215915679,1.70138269662857,,,,0.78433791709108,0.784511057647982
512723.871719399,282.491789521999,0.0572227577536801,5.72227577536801E-05,0.667182505130767,-1.03511667251586,1.70229917764663,,,,0.784948666031277,0.785121806588179
512724.051919262,282.67198938498,0.0572592596735656,5.72592596735656E-05,0.668213605880737,-1.03515493869781,1.70336854457855,,,,0.785449378238211,0.785622518795113
512724.2705191,282.89058922301,0.0573035401762359,5.73035401762359E-05,0.669225573539733,-1.03511667251586,1.7043422460556,,,,0.786056792540959,0.786229933097861
512724.453918967,283.073989089986,0.0573406904059251,5.73406904059251E-05,0.67023754119873,-1.03507852554321,1.70531606674194,,,,0.78656639788649,0.786739538443392
512724.654318817,283.274388940015,0.0573812842423849,5.73812842423849E-05,0.671306788921356,-1.03502130508422,1.70632809400558,,,,0.787123240636281,0.787296381193183
512724.848318676,283.468388798996,0.0574205816615191,5.74205816615191E-05,0.672318756580352,-1.0352885723114,1.70760732889175,,,,0.787662299883664,0.787835440440566
512725.014518551,283.634588674002,0.0574542478029728,5.74542478029728E-05,0.673388004302978,-1.03504037857055,1.70842838287353,,,,0.788124112523632,0.788297253080534
512725.19711842,283.817188542977,0.0574912359216081,5.74912359216081E-05,0.674400031566619,-1.03515493869781,1.70955497026443,,,,0.788631494123568,0.78880463468047
512725.371718282,283.991788404994,0.0575266035949985,5.75266035949985E-05,0.675431072711944,-1.03515493869781,1.71058601140976,,,,0.789116647393669,0.789289787950571
512725.516318175,284.136388298008,0.0575558944104843,5.75558944104843E-05,0.676462173461914,-1.03484940528869,1.71131157875061,,,,0.789518441844778,0.78969158240168
512725.692118048,284.312188171025,0.0575915052058299,5.75915052058299E-05,0.677531421184539,-1.03500211238861,1.71253353357315,,,,0.790006930121123,0.790180070678025
512725.851117933,284.471188055992,0.0576237127694024,5.76237127694024E-05,0.678543388843536,-1.03507852554321,1.71362191438674,,,,0.790448734834052,0.790621875390954
512725.993917815,284.613987937977,0.0576526388924651,5.76526388924651E-05,0.679593563079834,-1.03492581844329,1.71451938152313,,,,0.790845526645612,0.791018667202514
512726.136917717,284.756987839995,0.0576816055365238,5.76816055365238E-05,0.680624604225158,-1.03498303890228,1.71560764312744,,,,0.791242874300738,0.79141601485764
512726.294517599,284.914587721985,0.057713529507637,5.7713529507637E-05,0.681655704975128,-1.03494489192962,1.71660059690475,,,,0.791680788856475,0.791853929413377
512726.41691751,285.036987632979,0.0577383233075936,5.77383233075936E-05,0.682724952697753,-1.03494489192962,1.71766984462738,,,,0.792020895851764,0.792194036408666
512726.559517397,285.179587520019,0.0577672090269228,5.77672090269228E-05,0.68373692035675,-1.03490674495697,1.71864366531372,,,,0.792417133428296,0.792590273985198
512726.693717304,285.313787426974,0.0577943931553231,5.77943931553231E-05,0.68476802110672,-1.03494489192962,1.71971291303634,,,,0.792790029565475,0.792963170122377
512726.81511721,285.435187332972,0.0578189843921893,5.78189843921893E-05,0.685837268829345,-1.03498303890228,1.72082030773162,,,,0.793127357917549,0.793300498474451
512726.939517117,285.559587239986,0.0578441833943956,5.78441833943956E-05,0.686887443065643,-1.03488755226135,1.72177499532699,,,,0.793473023242738,0.79364616379964
512727.055917024,285.675987146969,0.0578677618690431,5.78677618690431E-05,0.68793761730194,-1.03486847877502,1.72280609607696,,,,0.793796459108959,0.793969599665861
512727.174516938,285.794587060984,0.0578917859474818,5.78917859474818E-05,0.688949584960937,-1.03484940528869,1.72379899024963,,,,0.794126007510038,0.79429914806694
512727.294316854,285.914386976976,0.0579160531068543,5.79160531068543E-05,0.689980685710907,-1.03494489192962,1.72492557764053,,,,0.794458890354654,0.794632030911556
512727.394516773,286.014586895995,0.057936350059847,5.7936350059847E-05,0.691011726856231,-1.03486847877502,1.72588020563125,,,,0.794737312206406,0.794910452763308
512727.499116698,286.119186820986,0.0579575383488072,5.79575383488072E-05,0.692023694515228,-1.03481125831604,1.72683495283126,,,,0.795027960888988,0.79520110144589
512727.600116629,286.220186751976,0.0579779972979691,5.79779972979691E-05,0.693035662174224,-1.03471577167511,1.72775143384933,,,,0.795308604910413,0.795481745467315
512727.699516553,286.319586676022,0.0579981321785251,5.79981321785251E-05,0.694047689437866,-1.03492581844329,1.72897350788116,,,,0.795584803546298,0.7957579441032
512727.795516479,286.415586602001,0.0580175783226457,5.80175783226457E-05,0.69507873058319,-1.03479218482971,1.7298709154129,,,,0.795851554494454,0.796024695051356
512727.896516397,286.516586520011,0.058038037233293,5.8038037233293E-05,0.696167111396789,-1.03492581844329,1.73109292984008,,,,0.796132197987558,0.79630533854446
512727.996716326,286.616786448984,0.0580583341308302,5.80583341308302E-05,0.697236359119415,-1.03479218482971,1.73202854394912,,,,0.796410619078604,0.796583759635506
512728.081116262,286.701186385006,0.0580754305450055,5.80754305450055E-05,0.698248326778411,-1.03475391864776,1.73300224542617,,,,0.796645137791571,0.796818278348473
512728.175316192,286.795386314974,0.058094512032681,5.8094512032681E-05,0.699260294437408,-1.03473484516143,1.73399513959884,,,,0.796906886593704,0.797080027150606
512728.25671614,286.876786263019,0.0581110007762015,5.81110007762015E-05,0.700310468673706,-1.03475391864776,1.73506438732147,,,,0.797133069632394,0.797306210189296
512728.337916069,286.957986192021,0.0581274489753346,5.81274489753346E-05,0.701379716396331,-1.03479218482971,1.73617190122604,,,,0.797358696506648,0.79753183706355
512728.424916006,287.044986128982,0.058145071997924,5.8145071997924E-05,0.702391684055328,-1.03479218482971,1.73718386888504,,,,0.797600438928999,0.797773579485901
512728.499515953,287.119586076005,0.0581601833103465,5.81601833103465E-05,0.703403711318969,-1.03462028503418,1.73802399635314,,,,0.797807727165247,0.797980867722149
512728.576715897,287.196786020009,0.0581758212937481,5.81758212937481E-05,0.704415678977966,-1.03469669818878,1.73911237716674,,,,0.79802223996911,0.798195380526012
512728.654315837,287.274385960016,0.0581915403301749,5.81915403301749E-05,0.705446720123291,-1.03488755226135,1.74033427238464,,,,0.798237864611453,0.798411005168355
512728.71891579,287.338985913026,0.0582046260123485,5.82046260123485E-05,0.706496894359588,-1.03467762470245,1.74117451906204,,,,0.798417366424534,0.798590506981436
512728.795915734,287.41598585702,0.0582202234032849,5.82202234032849E-05,0.707527995109558,-1.03469669818878,1.74222469329834,,,,0.798631322404457,0.798804462961359
512728.859315685,287.479385807994,0.058233066011207,5.8233066011207E-05,0.708559036254882,-1.03469669818878,1.74325573444366,,,,0.798807489865665,0.798980630422567
512728.924115635,287.544185757986,0.0582461921758917,5.82461921758917E-05,0.709571003913879,-1.0346393585205,1.74421036243438,,,,0.798987546994399,0.799160687551301
512728.99431558,287.614385702997,0.0582604122067889,5.82604122067889E-05,0.710602104663848,-1.03477311134338,1.74537521600723,,,,0.799182609146624,0.799355749703526
512729.057315534,287.677385656978,0.0582731737411585,5.82731737411585E-05,0.711614072322845,-1.03475391864776,1.74636799097061,,,,0.799357664487771,0.799530805044673
512729.117915486,287.737985608983,0.0582854491534763,5.82854491534763E-05,0.712626039981842,-1.03465855121612,1.74728459119796,,,,0.799526051488015,0.799699192044917
512729.175715446,287.795785569004,0.0582971573865381,5.82971573865381E-05,0.713638007640838,-1.03465855121612,1.74829655885696,,,,0.799686658251552,0.799859798808454
512729.236515402,287.856585524976,0.0583094733001192,5.83094733001192E-05,0.714707314968109,-1.0346393585205,1.74934667348861,,,,0.79985560082468,0.800028741381582
512729.29631536,287.916385482997,0.0583215866470105,5.83215866470105E-05,0.715757429599762,-1.03471577167511,1.75047320127487,,,,0.80002176470522,0.800194905262121
512729.354115322,287.974185444997,0.0583332948199577,5.83332948199577E-05,0.716769456863403,-1.03479218482971,1.75156164169311,,,,0.800182370644139,0.800355511201041
512729.398715277,288.018785400025,0.0583423291978671,5.83423291978671E-05,0.717800498008728,-1.0346393585205,1.75243985652923,,,,0.800306299010523,0.800479439567425
512729.457315236,288.077385358978,0.0583541995288564,5.83541995288564E-05,0.718850672245025,-1.03462028503418,1.7534709572792,,,,0.800469129339594,0.800642269896496
512729.512515202,288.132585324987,0.0583653811361558,5.83653811361558E-05,0.719881772994995,-1.03481125831604,1.75469303131103,,,,0.800622512155772,0.800795652712674
512729.559715162,288.17978528497,0.0583749422394931,5.83749422394931E-05,0.720970094203949,-1.03465855121612,1.75562864542007,,,,0.800753665836668,0.80092680639357
512729.615715116,288.235785238969,0.0583862858280804,5.83862858280804E-05,0.722020268440246,-1.03479218482971,1.75681245326995,,,,0.800909270618387,0.801082411175289
512729.661315091,288.28138521401,0.0583955227376355,5.83955227376355E-05,0.723089516162872,-1.03460121154785,1.75769072771072,,,,0.801035977196646,0.801209117753548
512729.713515045,288.333585168002,0.0584060966244439,5.84060966244439E-05,0.724101483821868,-1.03479218482971,1.75889366865158,,,,0.801181023654923,0.801354164211825
512729.756715023,288.376785146014,0.0584148474296663,5.84148474296663E-05,0.725151658058166,-1.03462028503418,1.75977194309234,,,,0.80130106213534,0.801474202692242
512729.799314983,288.419385106012,0.0584234766547945,5.84234766547945E-05,0.726240038871765,-1.03460121154785,1.76084125041961,,,,0.801419432850405,0.801592573407307
512729.842314952,288.462385074992,0.058432186924133,5.8432186924133E-05,0.727290213108062,-1.03452491760253,1.7618151307106,,,,0.801538915283032,0.801712055839934
512729.883914928,288.503985051008,0.0584406135861079,5.84406135861079E-05,0.728302180767059,-1.03441035747528,1.76271253824234,,,,0.801654507354018,0.80182764791092
512729.925114888,288.545185010997,0.0584489592692985,5.84489592692985E-05,0.729314148426055,-1.03452491760253,1.76383906602859,,,,0.801768988604918,0.80194212916182
512729.975114859,288.595184981998,0.0584590874812404,5.84590874812404E-05,0.730326116085052,-1.03462028503418,1.76494640111923,,,,0.801907921553366,0.802081062110268
512730.013314828,288.633384950983,0.0584668254609274,5.84668254609274E-05,0.731357216835022,-1.03467762470245,1.76603484153747,,,,0.802014066679388,0.80218720723629
512730.048314798,288.66838492098,0.0584739151994089,5.84739151994089E-05,0.732369184494018,-1.03479218482971,1.76716136932373,,,,0.802111319607804,0.802284460164706
512730.083714768,288.703784890997,0.0584810859318972,5.84810859318972E-05,0.733381152153015,-1.03446757793426,1.76784873008728,,,,0.80220968356512,0.802382824122021
512730.120714743,288.740784865979,0.0584885808426109,5.84885808426109E-05,0.734393119812011,-1.03448665142059,1.7688797712326,,,,0.802312494411672,0.802485634968574
512730.159114719,288.779184842017,0.0584963592464593,5.84963592464593E-05,0.735405087471008,-1.03467762470245,1.77008271217346,,,,0.80241919405294,0.802592334609842
512730.196914695,288.816984818026,0.0585040161794755,5.85040161794755E-05,0.736455261707305,-1.03462028503418,1.77107554674148,,,,0.802524227427648,0.80269736798455
512730.22891467,288.848984793003,0.0585104982703063,5.85104982703063E-05,0.737524509429931,-1.03465855121612,1.77218306064605,,,,0.802613144997343,0.802786285554245
512730.262514643,288.882584766019,0.0585173044360976,5.85173044360976E-05,0.738536536693573,-1.03452491760253,1.77306145429611,,,,0.802706508039748,0.80287964859665
512730.298314612,288.918384735007,0.0585245561780897,5.85245561780897E-05,0.739567577838897,-1.03456306457519,1.77413064241409,,,,0.802805983238542,0.802979123795444
512730.333914581,288.953984703985,0.0585317674659325,5.85317674659325E-05,0.740617752075195,-1.03465855121612,1.77527630329132,,,,0.802904903510734,0.803078044067636
512730.362114563,288.982184686,0.058537479749971,5.8537479749971E-05,0.741686999797821,-1.03462028503418,1.776307284832,,,,0.802983261316475,0.803156401873377
512730.395714536,289.015784659016,0.0585442858811418,5.85442858811418E-05,0.742698967456817,-1.03469669818878,1.77739566564559,,,,0.803076623883975,0.803249764440877
512730.425914514,289.045984636992,0.0585504033119381,5.85504033119381E-05,0.743806421756744,-1.03462028503418,1.77842670679092,,,,0.80316053925841,0.803333679815312
512730.459114488,289.079184610979,0.0585571284497745,5.85571284497745E-05,0.744818389415741,-1.03462028503418,1.77943867444992,,,,0.803252790806235,0.803425931363137
512730.485114473,289.105184595974,0.0585623951374061,5.85623951374061E-05,0.745887696743011,-1.03456306457519,1.7804507613182,,,,0.80332503617841,0.803498176735312
512730.518914446,289.138984568999,0.0585692418231799,5.85692418231799E-05,0.746918737888336,-1.03465855121612,1.78157728910446,,,,0.803418955050479,0.803592095607381
512730.542514435,289.162584558013,0.0585740223605169,5.85740223605169E-05,0.747968912124633,-1.03446757793426,1.78243649005889,,,,0.803484531694333,0.803657672251235
512730.576114408,289.196184530971,0.0585808284729554,5.85808284729554E-05,0.749000012874603,-1.03473484516143,1.78373485803604,,,,0.803577894004875,0.803751034561777
512730.600514394,289.220584516996,0.0585857710043126,5.85857710043126E-05,0.750088334083557,-1.03454399108886,1.78463232517242,,,,0.803645692788925,0.803818833345827
512730.629914369,289.249984492024,0.0585917263926798,5.85917263926798E-05,0.751119434833526,-1.03471577167511,1.78583520650863,,,,0.803727385359119,0.803900525916021
512730.655914347,289.275984469976,0.0585969930435883,5.85969930435883E-05,0.752150475978851,-1.03471577167511,1.78686624765396,,,,0.803799630227549,0.803972770784451
512730.679314322,289.29938444501,0.058601733018544,5.8601733018544E-05,0.753162443637847,-1.03462028503418,1.78778272867202,,,,0.803864650460137,0.804037791017039
512730.70431431,289.324384432985,0.0586067971098291,5.86067971098291E-05,0.754250824451446,-1.03456306457519,1.78881388902664,,,,0.80393411673291,0.804107257289812
512730.733914289,289.353984411981,0.0586127930394014,5.86127930394014E-05,0.755300998687744,-1.03475391864776,1.79005491733551,,,,0.804016365423888,0.80418950598079
512730.756914278,289.376984401024,0.0586174520224796,5.86174520224796E-05,0.75631296634674,-1.03460121154785,1.79091417789459,,,,0.804080274656785,0.804253415213687
512730.777914254,289.397984376992,0.0586217058570319,5.86217058570319E-05,0.757363140583038,-1.03462028503418,1.79198342561721,,,,0.804138626296734,0.804311766853636
512730.801914233,289.421984356013,0.0586265674389369,5.86265674389369E-05,0.758413314819335,-1.03450572490692,1.79291903972625,,,,0.804205314663058,0.80437845521996
512730.824714224,289.444784347026,0.0586311859211127,5.86311859211127E-05,0.75944435596466,-1.03448665142059,1.79393100738525,,,,0.804268668328021,0.804441808884923
512730.846114206,289.466184329009,0.0586355208143526,5.86355208143526E-05,0.760456323623657,-1.03450572490692,1.79496204853057,,,,0.804328131884123,0.804501272441025
512730.867714182,289.487784305005,0.0586398962289691,5.86398962289691E-05,0.761487424373626,-1.03450572490692,1.79599314928054,,,,0.804388151289014,0.804561291845916
512730.89151417,289.511584292981,0.0586447172378467,5.86447172378467E-05,0.762537598609924,-1.03473484516143,1.79727244377136,,,,0.804454283098034,0.804627423654936
512730.91531416,289.535384282994,0.0586495382601851,5.86495382601851E-05,0.763568639755249,-1.03471577167511,1.79828441143035,,,,0.804520415091702,0.804693555648604
512730.935514137,289.555584259972,0.0586536300494406,5.86536300494406E-05,0.764599740505218,-1.03473484516143,1.79933458566665,,,,0.804576543888074,0.804749684444976
512730.95631412,289.576384242973,0.0586578434004221,5.86578434004221E-05,0.765611708164215,-1.03462028503418,1.80023199319839,,,,0.804634340197834,0.804807480754736
512730.975514114,289.595584237017,0.0586617326265441,5.86617326265441E-05,0.766661882400512,-1.03469669818878,1.80135858058929,,,,0.804687690350399,0.804860830907301
512730.995114091,289.615184214024,0.0586657028763659,5.86657028763659E-05,0.767731130123138,-1.0346393585205,1.80237048864364,,,,0.804742151939176,0.804915292496078
512731.015714079,289.635784202023,0.058669875733508,5.8669875733508E-05,0.768819510936737,-1.03467762470245,1.80349713563919,,,,0.804799392777888,0.80497253333479
512731.036714067,289.656784189981,0.058674129602313,5.8674129602313E-05,0.769850552082061,-1.03467762470245,1.80452817678451,,,,0.804857744887696,0.805030885444597
512731.054514043,289.674584165972,0.0586777352342043,5.86777352342043E-05,0.770881652832031,-1.03479218482971,1.80567383766174,,,,0.80490720485877,0.805080345415672
512731.074114039,289.694184162014,0.0586817055151396,5.86817055151396E-05,0.771931767463684,-1.03465855121612,1.80659031867981,,,,0.804961666874343,0.805134807431245
512731.091314021,289.711384143971,0.0586851896266937,5.86851896266937E-05,0.772962868213653,-1.03473484516143,1.80769771337509,,,,0.805009459899777,0.805182600456678
512731.108114011,289.728184134001,0.0586885927042994,5.86885927042994E-05,0.773993968963623,-1.03458213806152,1.80857610702514,,,,0.805056141348414,0.805229281905316
512731.124713997,289.744784120005,0.0586919552477863,5.86919552477863E-05,0.775005936622619,-1.0346393585205,1.80964529514312,,,,0.805102266773475,0.805275407330377
512731.141913984,289.761984107026,0.0586954393614398,5.86954393614398E-05,0.776036977767944,-1.03454399108886,1.81058096885681,,,,0.805150059827707,0.805323200384609
512731.160713973,289.780784095987,0.0586992475532691,5.86992475532691E-05,0.777068078517913,-1.03448665142059,1.8115547299385,,,,0.805202298398753,0.805375438955655
512731.178513951,289.798584074015,0.0587028532159097,5.87028532159097E-05,0.77808004617691,-1.0346393585205,1.81271940469741,,,,0.805251758791628,0.80542489934853
512731.195113952,289.815184074978,0.0587062157752978,5.87062157752978E-05,0.779130220413208,-1.03475391864776,1.81388413906097,,,,0.805297884434812,0.805471024991714
512731.210913926,289.830984049011,0.0587094163088567,5.87094163088567E-05,0.780180394649505,-1.03462028503418,1.81480067968368,,,,0.805341787501464,0.805514928058366
512731.225513928,289.845584050985,0.0587123737494118,5.87123737494118E-05,0.78121143579483,-1.0346393585205,1.81585079431533,,,,0.80538235595901,0.805555496515912
512731.242313903,289.862384025997,0.0587157768114309,5.87157768114309E-05,0.782223403453826,-1.03454399108886,1.81676739454269,,,,0.80542903719384,0.805602177750742
512731.259313903,289.87938402599,0.0587192204220692,5.87192204220692E-05,0.783369064331054,-1.03450572490692,1.81787478923797,,,,0.805476274651155,0.805649415208057
512731.276113881,289.89618400397,0.0587226235226492,5.87226235226492E-05,0.784381031990051,-1.03471577167511,1.81909680366516,,,,0.805522956414941,0.805696096971843
512731.290113881,289.910184003995,0.0587254594050249,5.87254594050249E-05,0.785392999649047,-1.03467762470245,1.8200706243515,,,,0.805561857407749,0.805734997964651
512731.303713858,289.923783981008,0.0587282142796351,5.87282142796351E-05,0.786404967308044,-1.03471577167511,1.82112073898315,,,,0.805599647182923,0.805772787739825
512731.319513859,289.939583981992,0.0587314147675998,0.0000587314147675998,0.787436068058013,-1.03460121154785,1.82203727960586,,,,0.80564354962414,0.805816690181042
512731.334713835,289.954783957975,0.0587344937486483,5.87344937486483E-05,0.788467109203338,-1.03484940528869,1.82331651449203,,,,0.805685785303818,0.80585892586072
512731.347713833,289.967783955974,0.0587371270721422,5.87371270721422E-05,0.789498209953308,-1.03462028503418,1.82411849498748,,,,0.805721907711141,0.805895048268043
512731.361313819,289.981383942009,0.0587398819340269,5.87398819340269E-05,0.790529310703277,-1.03454399108886,1.82507330179214,,,,0.805759697311755,0.805932837868657
512731.377113811,289.997183933971,0.0587430824474361,5.87430824474361E-05,0.791541278362274,-1.03481125831604,1.82635253667831,,,,0.805803600102004,0.805976740658906
512731.390913799,290.010983921995,0.0587458778388368,5.87458778388368E-05,0.792591452598571,-1.03469669818878,1.82728815078735,,,,0.805841945663056,0.806015086219958
512731.403313788,290.023383911001,0.058748389637053,5.8748389637053E-05,0.793641567230224,-1.03469669818878,1.828338265419,,,,0.805876401056969,0.806049541613871
512731.417913783,290.03798390599,0.0587513471235467,5.87513471235467E-05,0.794653594493866,-1.03479218482971,1.82944577932357,,,,0.805916970144674,0.806090110701576
512731.429713763,290.049783886003,0.0587537373663849,5.87537373663849E-05,0.795665562152862,-1.03473484516143,1.8304004073143,,,,0.805949758112276,0.806122898669178
512731.442513764,290.062583887018,0.0587563302215139,5.87563302215139E-05,0.796677529811859,-1.03452491760253,1.83120244741439,,,,0.805985325397996,0.806158465954898
512731.457113746,290.077183868969,0.0587592876620624,5.87592876620624E-05,0.797727704048156,-1.03477311134338,1.83250081539154,,,,0.806025893855451,0.806199034412353
512731.468913741,290.088983864,0.0587616779155334,5.87616779155334E-05,0.798835158348083,-1.03473484516143,1.83357000350952,,,,0.806058681968908,0.80623182252581
512731.481913734,290.101983856992,0.0587643112676508,5.87643112676508E-05,0.79984712600708,-1.03469669818878,1.83454382419586,,,,0.806094804768873,0.806267945325775
512731.485513728,290.105583850993,0.0587650404925777,5.87650404925777E-05,0.800114452838897,-1.03462028503418,1.83473473787307,,,,0.80610480785429,0.806277948411192
512731.485713727,290.105783850013,0.0587650810065468,5.87650810065468E-05,0.800209879875183,-1.03467762470245,1.83488750457763,,,,0.806105363601465,0.806278504158367
