time/s,reltime/s,C/mA.h,C/A.h,Ewe/V,Ece/V,Ewe-Ece/V
512731.486313727,0.0,0.0,0.0,0.760567069053649,-1.03097343444824,1.79154050350189
512731.486513727,0.00020000000949949026,4.0477305650711e-08,4.0477305650711e-11,0.738192200660705,-1.02720463275909,1.7653968334198
512731.486713727,0.0004000000189989805,8.09606247478061e-08,8.09606247478061e-11,0.727614760398864,-1.02432525157928,1.75194001197814
512731.486913726,0.0005999990389682353,1.21442529890272e-07,1.2144252989027198e-10,0.722860395908355,-1.02232062816619,1.74518102407455
512731.487113726,0.0007999989902600646,1.6192301776674e-07,1.6192301776674e-10,0.72022545337677,-1.02123236656189,1.74145781993866
512731.487313726,0.0009999989997595549,2.02408807145224e-07,2.0240880714522398e-10,0.71841150522232,-1.02056419849395,1.73897570371627
512731.487513725,0.0011999980197288096,2.42892834875318e-07,2.42892834875318e-10,0.716884016990661,-1.01995325088501,1.73683726787567
512731.487913725,0.0015999980387277901,3.23865476581785e-07,3.23865476581785e-10,0.714936435222625,-1.01876962184906,1.73370605707168
512731.488313724,0.001999997009988874,4.04838826921251e-07,4.0483882692125095e-10,0.713428020477294,-1.01806318759918,1.73149120807647
512731.488713723,0.002399996039457619,4.85815717114342e-07,4.858157171143419e-10,0.712129592895507,-1.01747131347656,1.72960090637207
512731.489313722,0.0029999950202181935,6.0727592309316e-07,6.072759230931599e-10,0.710678458213806,-1.0167076587677,1.7273861169815
512731.489913721,0.003599994000978768,7.2873400317298e-07,7.2873400317298e-10,0.709494650363922,-1.01603949069976,1.72553414106369
512731.49051372,0.004199993039947003,8.50198444392946e-07,8.50198444392946e-10,0.708272635936737,-1.0155621767044,1.72383481264114
512731.491113719,0.0047999920207075775,9.71657584110895e-07,9.71657584110895e-10,0.707107901573181,-1.01506578922271,1.72217369079589
512731.491913718,0.005599991010967642,1.13360251651869e-06,1.13360251651869e-09,0.705924093723297,-1.01466488838195,1.72058898210525
512731.492713718,0.006399990990757942,1.29554639922248e-06,1.29554639922248e-09,0.704702079296112,-1.01428306102752,1.71898514032363
512731.493513718,0.007199991028755903,1.45749310652414e-06,1.45749310652414e-09,0.703422784805297,-1.0139775276184,1.7174003124237
512731.494513719,0.00819999200757593,1.65993055038982e-06,1.65993055038982e-09,0.702143490314483,-1.01355755329132,1.7157010436058
512731.495313719,0.00899999198736623,1.821881496244e-06,1.821881496244e-09,0.701074242591857,-1.0133284330368,1.71440267562866
512731.49611372,0.009799993014894426,1.98382643196317e-06,1.98382643196317e-09,0.700004994869232,-1.01308023929595,1.71308523416519
512731.497113719,0.01079999201465398,2.1862667037381e-06,2.1862667037381e-09,0.698821127414703,-1.01279389858245,1.71161502599716
512731.497913719,0.01159999199444428,2.34821765290366e-06,2.34821765290366e-09,0.697790086269378,-1.01264119148254,1.71043127775192
512731.498913719,0.012599992041941732,2.55064732167455e-06,2.5506473216745504e-09,0.696758985519409,-1.01245021820068,1.70920920372009
512731.499713719,0.013399992021732032,2.71260074774424e-06,2.7126007477442397e-09,0.695747017860412,-1.01214480400085,1.70789182186126
512731.500913719,0.014599992020521313,2.95551973912451e-06,2.95551973912451e-09,0.694544076919555,-1.01208746433258,1.70663154125213
512731.501913719,0.015599992009811103,3.15795930226643e-06,3.15795930226643e-09,0.6934175491333,-1.01183927059173,1.70525681972503
512731.502913718,0.016599991009570658,3.36039709713723e-06,3.36039709713723e-09,0.692291021347045,-1.0118201971054,1.70411121845245
512731.503913718,0.01759999099886045,3.56283453769154e-06,3.56283453769154e-09,0.691164493560791,-1.01161015033721,1.70277464389801
512731.505113719,0.018799991987179965,3.80576095647282e-06,3.80576095647282e-09,0.689885199069976,-1.01134288311004,1.70122808218002
512731.506113719,0.019799992034677416,4.00819592343436e-06,4.00819592343436e-09,0.688796818256378,-1.0113810300827,1.70017784833908
512731.50711372,0.020799993013497442,4.21063054601351e-06,4.21063054601351e-09,0.687670290470123,-1.01120924949646,1.69887953996658
512731.50811372,0.021799993002787232,4.41306622160805e-06,4.4130662216080495e-09,0.686601042747497,-1.01124739646911,1.69784843921661
512731.509113718,0.02279999101301655,4.61550260914696e-06,4.61550260914696e-09,0.685589075088501,-1.0110946893692,1.6966837644577
512731.510313716,0.02399998903274536,4.85842902792824e-06,4.85842902792824e-09,0.684386134147644,-1.01103746891021,1.69542360305786
512731.511313715,0.024999988032504916,5.06085940202077e-06,5.0608594020207704e-09,0.683297753334045,-1.01105654239654,1.69435429573059
512731.512513713,0.026199985994026065,5.30378157893816e-06,5.30378157893816e-09,0.682209432125091,-1.01092290878295,1.69313234090805
512731.513513711,0.027199984004255384,5.50621125102043e-06,5.50621125102043e-09,0.681063771247863,-1.01086556911468,1.69192934036254
512731.514713709,0.028399982023984194,5.74912848737504e-06,5.7491284873750404e-09,0.679994523525238,-1.01078927516937,1.69078379869461
512731.515913708,0.02959998103324324,5.99204889933268e-06,5.99204889933268e-09,0.678810715675354,-1.01075100898742,1.68956172466278
512731.517113706,0.030799978994764388,6.23496860265731e-06,6.23496860265731e-09,0.677684187889099,-1.01067471504211,1.68835890293121
512731.518313704,0.0319999770144932,6.47789431611697e-06,6.4778943161169694e-09,0.676538527011871,-1.0105220079422,1.68706053495407
512731.519513702,0.03319997503422201,6.72082108590338e-06,6.72082108590338e-09,0.675488352775573,-1.01057922840118,1.68606758117675
512731.5207137,0.034399972995743155,6.96374150117238e-06,6.96374150117238e-09,0.674304544925689,-1.01029288768768,1.68459743261337
512731.522113697,0.03579997003544122,7.247147348192e-06,7.247147348192e-09,0.673139810562133,-1.01033103466033,1.68347084522247
512731.523313695,0.03699996799696237,7.49006599187851e-06,7.49006599187851e-09,0.672089636325836,-1.01029288768768,1.68238252401351
512731.524513696,0.038199968985281885,7.73298993706703e-06,7.732989937067031e-09,0.671058595180511,-1.01014018058776,1.68119877576828
512731.525713697,0.03939997003180906,7.97591493858231e-06,7.97591493858231e-09,0.670027494430542,-1.01014018058776,1.68016767501831
512731.527113698,0.04079997102962807,8.25932184524006e-06,8.25932184524006e-09,0.668767273426055,-1.01019740104675,1.6789646744728
512731.528513697,0.04219996999017894,8.54272946715355e-06,8.54272946715355e-09,0.667564392089843,-1.01006376743316,1.67762815952301
512731.529713697,0.04339996998896822,8.78564670019679e-06,8.78564670019679e-09,0.666418731212616,-1.01010191440582,1.67652064561843
512731.531113697,0.044799969997256994,9.06905219621128e-06,9.06905219621128e-09,0.665273129940033,-1.01000642776489,1.67527955770492
512731.532313697,0.045999969996046275,9.31196871399879e-06,9.31196871399879e-09,0.664184749126434,-1.00996828079223,1.67415302991867
512731.533513697,0.047199969994835556,9.55489123860995e-06,9.554891238609949e-09,0.663134574890136,-1.01014018058776,1.6732747554779
512731.535113696,0.04879996902309358,9.87877368595865e-06,9.87877368595865e-09,0.661855280399322,-1.00996828079223,1.67182356119155
512731.536713697,0.05039997003041208,1.02026762829886e-05,1.02026762829886e-08,0.660709679126739,-1.00991106033325,1.67062073945999
512731.538113697,0.05179997003870085,1.04860945045948e-05,1.04860945045948e-08,0.659583151340484,-1.00991106033325,1.66949421167373
512731.539713697,0.05339996999828145,1.08099882668919e-05,1.08099882668919e-08,0.658437490463256,-1.00985372066497,1.66829121112823
512731.541113695,0.05479996802750975,1.10933994187249e-05,1.10933994187249e-08,0.657349109649658,-1.0095864534378,1.66693556308746
512731.542513692,0.05619996500900015,1.13768158687485e-05,1.13768158687485e-08,0.656337141990661,-1.00956737995147,1.66590452194213
512731.54391369,0.05759996303822845,1.1660226666265e-05,1.1660226666265e-08,0.655286967754364,-1.00960552692413,1.66489249467849
512731.545513687,0.059199960029218346,1.19841154813766e-05,1.19841154813766e-08,0.654160439968109,-1.0095864534378,1.66374689340591
512731.546913685,0.060599958000238985,1.22675220370292e-05,1.22675220370292e-08,0.653110265731811,-1.00941467285156,1.66252493858337
512731.548313682,0.06199995503993705,1.25509292946921e-05,1.25509292946921e-08,0.652079224586486,-1.00947189331054,1.66155111789703
512731.54971368,0.06339995301095769,1.28343270156118e-05,1.2834327015611801e-08,0.651048123836517,-1.00947189331054,1.66052001714706
512731.551313677,0.06499995000194758,1.3158224672079e-05,1.3158224672079e-08,0.65003615617752,-1.00960552692413,1.65964168310165
512731.552713675,0.06639994803117588,1.34416284064451e-05,1.3441628406445101e-08,0.648909628391265,-1.00937640666961,1.65828603506088
512731.554313672,0.06799994502216578,1.37655182811949e-05,1.3765518281194898e-08,0.647897660732269,-1.00954830646514,1.65744596719741
512731.555913673,0.06959994602948427,1.40894067386786e-05,1.40894067386786e-08,0.646866559982299,-1.00941467285156,1.65628123283386
512731.557513674,0.07119994703680277,1.44133004976643e-05,1.44133004976643e-08,0.645835518836975,-1.00939559936523,1.6552311182022
512731.559313674,0.07299994700588286,1.47776853541533e-05,1.47776853541533e-08,0.644804418087005,-1.00939559936523,1.65420001745224
512731.560913673,0.07459994603414088,1.51015692121452e-05,1.51015692121452e-08,0.643754243850708,-1.00916647911071,1.65292072296142
512731.562513673,0.07619994599372149,1.54254583848847e-05,1.54254583848847e-08,0.642742276191711,-1.00910913944244,1.65185141563415
512731.564513673,0.07819994603050873,1.5830336107148e-05,1.5830336107147998e-08,0.641692101955413,-1.00905191898345,1.65074402093887
512731.566113672,0.07979994500055909,1.61542277534802e-05,1.61542277534802e-08,0.640622854232788,-1.00903284549713,1.64965569972991
512731.568113673,0.08179994602687657,1.6559090266625e-05,1.6559090266625e-08,0.639515399932861,-1.00926196575164,1.6487773656845
512731.569913675,0.08359994803322479,1.69234680566522e-05,1.69234680566522e-08,0.638427078723907,-1.00907099246978,1.64749807119369
512731.571713673,0.08539994602324441,1.72878415981928e-05,1.72878415981928e-08,0.637338697910308,-1.00916647911071,1.64650517702102
512731.573513669,0.08719994203420356,1.76522303289837e-05,1.7652230328983698e-08,0.636307597160339,-1.00918555259704,1.64549314975738
512731.575913665,0.08959993801545352,1.81380895309978e-05,1.81380895309978e-08,0.634990155696868,-1.00910913944244,1.64409929513931
512731.578313661,0.09199993399670348,1.86239328152603e-05,1.86239328152603e-08,0.633882701396942,-1.00895643234252,1.64283913373947
512731.580513658,0.09419993101619184,1.90692920751041e-05,1.90692920751041e-08,0.632851600646972,-1.00891828536987,1.64176988601684
512731.582713654,0.09639992698794231,1.95146520402696e-05,1.95146520402696e-08,0.631801486015319,-1.0089373588562,1.64073884487152
512731.58491365,0.09859992301790044,1.99600166016154e-05,1.9960016601615398e-08,0.630636751651763,-1.00884187221527,1.63947862386703
512731.587313649,0.10099992202594876,2.04458556539482e-05,2.04458556539482e-08,0.629510164260864,-1.00886094570159,1.63837110996246
512731.589913651,0.10359992401208729,2.0972183316946e-05,2.0972183316946e-08,0.628459990024566,-1.00880372524261,1.63726371526718
512731.59211365,0.10579992301063612,2.14175510671403e-05,2.14175510671403e-08,0.627371668815612,-1.00878465175628,1.63615632057189
512731.59431365,0.10799992299871519,2.18629025552008e-05,2.18629025552008e-08,0.626359701156616,-1.00897550582885,1.63533520698547
512731.596913649,0.11059992201626301,2.23892436524232e-05,2.23892436524232e-08,0.62529045343399,-1.00888001918792,1.63417047262191
512731.59971365,0.11339992302237079,2.29560832778612e-05,2.2956083277861198e-08,0.624202072620391,-1.00868916511535,1.63289123773574
512731.60271365,0.11639992299024016,2.35633920861615e-05,2.3563392086161498e-08,0.623151898384094,-1.00855553150177,1.63170742988586
512731.605513645,0.11919991800095886,2.41302288870016e-05,2.41302288870016e-08,0.622120857238769,-1.00851738452911,1.63063824176788
512731.60831364,0.12199991301167756,2.4697049776713e-05,2.4697049776713e-08,0.620994269847869,-1.00857460498809,1.62956887483596
512731.611113635,0.12479990802239627,2.52638593481646e-05,2.52638593481646e-08,0.619982302188873,-1.00857460498809,1.62855690717697
512731.61431363,0.1279999029939063,2.59116514656278e-05,2.59116514656278e-08,0.618893980979919,-1.00868916511535,1.62758314609527
512731.617513625,0.13119989802362397,2.65594474772612e-05,2.65594474772612e-08,0.61786288022995,-1.00851738452911,1.62638026475906
512731.620913628,0.1345999010372907,2.72477313876152e-05,2.72477313876152e-08,0.616850912570953,-1.00838363170623,1.62523454427719
512731.624313627,0.1379999000346288,2.79360142581992e-05,2.79360142581992e-08,0.615819811820983,-1.00830733776092,1.6241271495819
512731.628113626,0.14179989899275824,2.87052623497115e-05,2.8705262349711497e-08,0.614807844161987,-1.00830733776092,1.62311518192291
512731.630913627,0.14459989999886602,2.92720927827888e-05,2.92720927827888e-08,0.61379587650299,-1.00846004486084,1.62225592136383
512731.634313626,0.14799989899620414,2.99603827032778e-05,2.99603827032778e-08,0.612707555294036,-1.00847911834716,1.6211866736412
512731.638713618,0.15239989099791273,3.08511040674315e-05,3.0851104067431495e-08,0.611638247966766,-1.00830733776092,1.61994558572769
512731.643113611,0.15679988398915157,3.17418190671338e-05,3.17418190671338e-08,0.610626280307769,-1.00828826427459,1.61891454458236
512731.647313604,0.16099987702909857,3.25920532147089e-05,3.25920532147089e-08,0.609537959098815,-1.00821185111999,1.61774981021881
512731.651713604,0.1653998770052567,3.34827915396955e-05,3.34827915396955e-08,0.608487784862518,-1.00821185111999,1.61669963598251
512731.656113604,0.16979987703962252,3.43735090196132e-05,3.43735090196132e-08,0.607380330562591,-1.00823092460632,1.61561125516891
512731.662113604,0.17579987703356892,3.55881195498837e-05,3.55881195498837e-08,0.606291949748992,-1.00802099704742,1.61431294679641
512731.667713599,0.1813998720026575,3.67217500309149e-05,3.67217500309149e-08,0.605127215385437,-1.00798273086547,1.61310994625091
512731.67311359,0.18679986300412565,3.78149134351147e-05,3.78149134351147e-08,0.604038894176483,-1.00809729099273,1.61213618516922
512731.67851358,0.19219985301606357,3.89080839190218e-05,3.89080839190218e-08,0.602969646453857,-1.00796365737915,1.610933303833
512731.68551358,0.19919985299929976,4.03251460525724e-05,4.0325146052572396e-08,0.601938545703887,-1.00783002376556,1.60976856946945
512731.690913579,0.20459985203342512,4.1418313715193e-05,4.1418313715193e-08,0.600869297981262,-1.0077918767929,1.60866117477417
512731.697713578,0.2113998510176316,4.27948868605825e-05,4.27948868605825e-08,0.599838197231292,-1.00784909725189,1.60768729448318
512731.705313565,0.2189998379908502,4.43334059947066e-05,4.43334059947066e-08,0.598807156085968,-1.00767731666564,1.60648447275161
512731.711913556,0.22559982899110764,4.56694714294539e-05,4.5669471429453895e-08,0.597776055335998,-1.00777280330658,1.60554885864257
512731.719313557,0.2329998300410807,4.7167511506213e-05,4.7167511506213e-08,0.596764087677002,-1.00767731666564,1.60444140434265
512731.727713557,0.24139983003260568,4.88679681619008e-05,4.88679681619008e-08,0.595713913440704,-1.00758183002471,1.60329574346542
512731.735513543,0.24919981602579355,5.04469522337118e-05,5.04469522337118e-08,0.594606459140777,-1.00760090351104,1.60220736265182
512731.745513534,0.25919980701291934,5.24713167846203e-05,5.24713167846203e-08,0.593594491481781,-1.00744819641113,1.60104268789291
512731.753513533,0.2671998059959151,5.40907961991098e-05,5.4090796199109804e-08,0.592582523822784,-1.00748634338378,1.60006886720657
512731.764113524,0.27779979701153934,5.62366047104199e-05,5.62366047104199e-08,0.591551482677459,-1.00721907615661,1.59877055883407
512731.77291351,0.286599782994017,5.80180258552233e-05,5.80180258552233e-08,0.590539455413818,-1.00731456279754,1.59785401821136
512731.78371351,0.2973997830413282,6.02043367822965e-05,6.02043367822965e-08,0.589527487754821,-1.0071427822113,1.59667026996612
512731.794913502,0.3085997750167735,6.24716175099214e-05,6.24716175099214e-08,0.588420033454895,-1.00729548931121,1.59571552276611
512731.808313488,0.32199976104311645,6.51842334469159e-05,6.51842334469159e-08,0.587331712245941,-1.00712358951568,1.59445530176162
512731.820713488,0.3343997609918006,6.76944360037644e-05,6.76944360037644e-08,0.586300611495971,-1.00704729557037,1.59334790706634
512731.833313467,0.34699973999522626,7.02451264659563e-05,7.024512646595629e-08,0.585288643836975,-1.00710451602935,1.59239315986633
512731.848313463,0.3619997359928675,7.32816482086976e-05,7.32816482086976e-08,0.584276676177978,-1.00679910182952,1.5910757780075
512731.864713443,0.37839971599169075,7.66016298830509e-05,7.660162988305091e-08,0.583264708518981,-1.00666546821594,1.58993017673492
512731.87711344,0.39079971302999184,7.91118557486269e-05,7.91118557486269e-08,0.582233607769012,-1.00689458847045,1.58912819623947
512731.892313426,0.4059996990254149,8.2188910646571e-05,8.2188910646571e-08,0.581221640110015,-1.00685632228851,1.58807796239852
512731.911513417,0.4251996900420636,8.60757057600551e-05,8.60757057600551e-08,0.580190598964691,-1.00668454170227,1.58687514066696
512731.929313393,0.442999666032847,8.96790886819362e-05,8.96790886819362e-08,0.579178571701049,-1.00647449493408,1.58565306663513
512731.948913389,0.4625996620161459,9.36468755536609e-05,9.364687555366089e-08,0.578128397464752,-1.00655090808868,1.58467930555343
512731.96871337,0.4823996429913677,9.7655102233092e-05,9.7655102233092e-08,0.577059149742126,-1.00641727447509,1.58347642421722
512731.990713348,0.5043996209860779,0.000102108723193407,1.02108723193407e-07,0.5759899020195,-1.00635993480682,1.58234983682632
512732.012113342,0.5257996150176041,0.000106440870152579,1.06440870152579e-07,0.574901580810546,-1.00628364086151,1.58118522167205
512732.037313324,0.5509995970060118,0.000111542253182994,1.11542253182994e-07,0.573851406574249,-1.00624537467956,1.58009678125381
512732.0651133,0.5787995730061084,0.000117170043425427,1.1717004342542699e-07,0.572782099246978,-1.0061308145523,1.57891291379928
512732.092313277,0.6059995500254445,0.000122676281925704,1.22676281925704e-07,0.571731984615325,-1.00605452060699,1.57778650522232
512732.118313253,0.6319995259982534,0.000127939655158254,1.2793965515825398e-07,0.570700883865356,-1.00607359409332,1.57677447795867
512732.150513231,0.6641995040117763,0.000134458142701122,1.34458142701122e-07,0.569612562656402,-1.00590181350708,1.57551437616348
512732.181513208,0.6951994810369797,0.000140733726494842,1.40733726494842e-07,0.568600535392761,-1.00571084022522,1.57431137561798
512732.213713184,0.7273994570132345,0.000147252229640881,1.47252229640881e-07,0.567588567733764,-1.00572991371154,1.57331848144531
512732.249713161,0.7633994340430945,0.000154539912296666,1.5453991229666602e-07,0.566557526588439,-1.00551998615264,1.57207751274108
512732.286313138,0.7999994110432453,0.000161949085533618,1.61949085533618e-07,0.565545499324798,-1.00546264648437,1.57100814580917
512732.327513104,0.8411993770278059,0.00017028948959377,1.7028948959377e-07,0.564476251602172,-1.00532901287078,1.56980526447296
512732.366913067,0.880599340016488,0.000178265522602531,1.7826552260253101e-07,0.563445210456848,-1.00521445274353,1.56865966320037
512732.409713044,0.9233993170200847,0.000186929886870914,1.8692988687091399e-07,0.562414109706878,-1.00523352622985,1.56764763593673
512732.451913012,0.9655992850312032,0.000195472748875618,1.95472748875618e-07,0.561363935470581,-1.00521445274353,1.56657838821411
512732.495312975,1.008999248035252,0.000204258554650677,2.04258554650677e-07,0.560332894325256,-1.0051189661026,1.56545186042785
512732.552112931,1.0657992039923556,0.000215756922288073,2.1575692228807302e-07,0.559320926666259,-1.00487077236175,1.56419169902801
512732.596512904,1.110199176997412,0.000224745097951756,2.24745097951756e-07,0.558308899402618,-1.00500440597534,1.56331330537796
512732.656912859,1.1705991320195608,0.00023697232964966,2.3697232964966002e-07,0.557277858257293,-1.00477540493011,1.5620532631874
512732.715912812,1.2295990849961527,0.000248916133575969,2.48916133575969e-07,0.556265890598297,-1.00469899177551,1.56096488237381
512732.774512765,1.2881990380119532,0.000260778970549504,2.60778970549504e-07,0.5552539229393,-1.00462257862091,1.55987650156021
512732.836112717,1.349798990006093,0.000273249102830886,2.7324910283088597e-07,0.554222822189331,-1.00435531139373,1.55857813358306
512732.910912672,1.424598945013713,0.00028839141978489,2.8839141978488997e-07,0.553172647953033,-1.00429809093475,1.55747073888778
512732.991112602,1.5047988750156946,0.000304626897361543,3.04626897361543e-07,0.552160680294036,-1.00418353080749,1.55634421110153
512733.057312556,1.5709988290327601,0.000318028313544061,3.18028313544061e-07,0.551129639148712,-1.00416445732116,1.55529409646987
512733.137712502,1.6513987749931403,0.00033430435531338,3.3430435531338e-07,0.55011761188507,-1.00408804416656,1.55420565605163
512733.219112439,1.732798712037038,0.000350782736652427,3.50782736652427e-07,0.549105644226074,-1.00399255752563,1.5530982017517
512733.31431237,1.8279986430425197,0.000370054765996005,3.70054765996005e-07,0.548055469989776,-1.00374436378479,1.55179983377456
512733.414312301,1.9279985740431584,0.00039029849751128,3.9029849751128004e-07,0.54704350233078,-1.00364899635314,1.55069249868392
512733.512712223,2.0263984960038215,0.000410218317869636,4.10218317869636e-07,0.546031534671783,-1.0034008026123,1.54943233728408
512733.59911216,2.1127984329941683,0.000427708818144268,4.27708818144268e-07,0.545019567012786,-1.00347709655761,1.5484966635704
512733.718912067,2.2325983400223777,0.000451960800690783,4.5196080069078297e-07,0.54400759935379,-1.00326716899871,1.5472747683525
512733.836311972,2.3499982450157404,0.000475726981603437,4.7572698160343696e-07,0.542995572090148,-1.00320982933044,1.54620540142059
512733.955311888,2.4689981610281393,0.00049981700547205,4.9981700547205e-07,0.541964530944824,-1.00307619571685,1.54504072666168
512734.095911787,2.6095980600221083,0.000528279693206151,5.28279693206151e-07,0.540876150131225,-1.00292348861694,1.54379963874816
512734.234111683,2.7477979559917003,0.000556256482442219,5.562564824422189e-07,0.539864182472229,-1.00269436836242,1.54255855083465
512734.377911577,2.891597850015387,0.000585366958306895,5.85366958306895e-07,0.538833141326904,-1.00273251533508,1.54156565666198
512734.536111461,3.0497977340128273,0.000617392506725258,6.17392506725258e-07,0.537821114063262,-1.00254166126251,1.54036277532577
512734.677711347,3.1913976200157776,0.000646057551595899,6.460575515958989e-07,0.536790072917938,-1.00229346752166,1.5390835404396
512734.858311219,3.371997492038645,0.000682617824438545,6.826178244385451e-07,0.535778105258941,-1.00225520133972,1.53803330659866
512735.041311087,3.554997360042762,0.000719663860307799,7.19663860307799e-07,0.534747004508972,-1.00208342075347,1.53683042526245
512735.237710932,3.751397204992827,0.000759422588467597,7.59422588467597e-07,0.533715963363647,-1.00196886062622,1.53568482398986
512735.438710786,3.952397059008945,0.000800112599071528,8.001125990715281e-07,0.532684862613678,-1.0018161535263,1.53450101613998
512735.658510623,4.172196895990055,0.000844608336389064,8.44608336389064e-07,0.531653821468353,-1.00170159339904,1.5333554148674
512735.87771046,4.3913967330008745,0.000888982794923914,8.88982794923914e-07,0.530641853809356,-1.00154888629913,1.53219074010849
512736.118110273,4.631796545989346,0.000937648725761307,9.376487257613069e-07,0.529629826545715,-1.00139617919921,1.53102600574493
512736.362510094,4.876196367025841,0.000987124535077147,9.87124535077147e-07,0.528522372245788,-1.00130069255828,1.52982306480407
512736.656509878,5.170196151011623,0.00104664116994208,1.04664116994208e-06,0.527472257614135,-1.00088059902191,1.52835285663604
512736.941109668,5.45479594101198,0.00110425500467419,1.10425500467419e-06,0.526383876800537,-1.00078523159027,1.5271691083908
512737.244309436,5.757995709020179,0.00116563413779934,1.1656341377993399e-06,0.525314629077911,-1.00072789192199,1.5260425209999
512737.564109203,6.077795476012398,0.00123037385928961,1.2303738592896101e-06,0.524245381355285,-1.00049877166748,1.52474415302276
512737.922908933,6.436595206032507,0.00130300850969884,1.30300850969884e-06,0.523214280605316,-1.00026977062225,1.52348405122757
512738.283708667,6.797394939989317,0.00137604795680774,1.37604795680774e-06,0.522183239459991,-1.00017428398132,1.52235752344131
512738.666508385,7.180194657994434,0.00145354110333654,1.45354110333654e-06,0.52117121219635,-1.00005972385406,1.52123093605041
512739.063908085,7.577594358008355,0.00153399003749423,1.53399003749423e-06,0.520159244537353,-0.999926030635833,1.52008527517318
512739.463707783,7.977394056040794,0.00161492455664939,1.61492455664939e-06,0.519147276878356,-0.999639630317688,1.51878690719604
512739.905707457,8.419393730000593,0.0017044022552967,1.7044022552967001e-06,0.518097102642059,-0.999372363090515,1.51746946573257
512740.34790713,8.861593403038569,0.00179392082073291,1.79392082073291e-06,0.517066061496734,-0.999238729476928,1.51630479097366
512740.871306736,9.384993009036407,0.00189987704159153,1.89987704159153e-06,0.516054093837738,-0.999009609222412,1.51506370306015
512741.408506339,9.922192612022627,0.00200862639786468,2.00862639786468e-06,0.515042066574096,-0.998875975608825,1.51391804218292
512741.928105944,10.441792217025068,0.00211381258974472,2.11381258974472e-06,0.513991892337799,-0.99868506193161,1.5126769542694
512742.549505485,11.063191758003086,0.00223960769136415,2.2396076913641502e-06,0.512979924678802,-0.998551428318023,1.51153135299682
512743.131905059,11.645591331995092,0.00235750805821021,2.35750805821021e-06,0.511967957019805,-0.998265027999877,1.51023298501968
512743.769904574,12.283590846986044,0.00248666370765037,2.4866637076503697e-06,0.510917782783508,-0.998207747936248,1.50912553071975
512744.495104034,13.008790307037998,0.00263347149838672,2.63347149838672e-06,0.509905815124511,-0.998055040836334,1.50796085596084
512745.193703522,13.707389794988558,0.002774894841618,2.774894841618e-06,0.508855640888214,-0.997673213481903,1.50652885437011
512745.996902917,14.510589190002065,0.00293749402826031,2.93749402826031e-06,0.507843673229217,-0.997539579868316,1.50538325309753
512746.737102365,15.250788638019003,0.00308733883783552,3.08733883783552e-06,0.50683170557022,-0.997444093227386,1.5042757987976
512747.597701728,16.11138800100889,0.00326155725215872,3.26155725215872e-06,0.505800604820251,-0.997100472450256,1.5029010772705
512748.438501101,16.95218737400137,0.0034317674477597,3.4317674477597e-06,0.504788637161254,-0.997004985809326,1.50179362297058
512749.419100372,17.932786645018496,0.00363027829650375,3.6302782965037502e-06,0.50375759601593,-0.99681407213211,1.50057166814804
512750.441299609,18.954985882039182,0.003837211019463,3.837211019463e-06,0.502745568752288,-0.996604084968566,1.49934965372085
512751.461698841,19.97538511402672,0.00404377910412682,4.04377910412682e-06,0.501733601093292,-0.99637496471405,1.49810856580734
512752.543698044,21.057384317042306,0.00426281774048672,4.26281774048672e-06,0.500721633434295,-0.996241331100463,1.49696296453476
512753.723897165,22.237583437992726,0.00450173517215251,4.50173517215251e-06,0.499690562486648,-0.996088624000549,1.49577918648719
512754.986896218,23.500582490989473,0.00475741436942087,4.757414369420871e-06,0.498678565025329,-0.995897710323333,1.49457627534866
512756.207095308,24.72078158101067,0.0050044293405248,5.0044293405248e-06,0.497666597366333,-0.995573103427887,1.49323970079422
512757.533094325,26.046780598000623,0.00527286259814765,5.27286259814765e-06,0.496616423130035,-0.995420396327972,1.492036819458
512758.951093269,27.46477954200236,0.00555991992698113,5.55991992698113e-06,0.495585352182388,-0.995248556137085,1.49083390831947
512760.43629216,28.949978433025535,0.00586058152708411,5.86058152708411e-06,0.494573384523391,-0.994962215423584,1.48953559994697
512761.996290996,30.509977268986404,0.00617638539656003,6.17638539656003e-06,0.493561416864395,-0.994885802268981,1.48844721913337
512763.576689822,32.09037609503139,0.00649631868696543,6.49631868696543e-06,0.492549419403076,-0.994637608528137,1.48718702793121
512765.238088579,33.75177485198947,0.00683264962990747,6.8326496299074695e-06,0.491537451744079,-0.994599461555481,1.48613691329956
512766.923487326,35.43717359902803,0.00717383901962306,7.17383901962306e-06,0.49052545428276,-0.994389414787292,1.48491486907005
512768.664686037,37.178372310008854,0.007526323830184,7.526323830184001e-06,0.489513486623764,-0.994103074073791,1.48361656069755
512770.567284615,39.08097088802606,0.00791148203958736,7.91148203958736e-06,0.488501518964767,-0.994103074073791,1.48260459303855
512772.467683196,40.981369469023775,0.00829619451052943,8.29619451052943e-06,0.487451344728469,-0.993893027305603,1.48134437203407
512774.569881637,43.08356791001279,0.00872176027934418,8.72176027934418e-06,0.486439377069473,-0.993587613105773,1.48002699017524
512776.711480028,45.22516630101018,0.0091553026622898,9.1553026622898e-06,0.485389202833175,-0.993377566337585,1.47876676917076
512778.898278398,47.4119646709878,0.00959799548503756,9.59799548503756e-06,0.484377235174179,-0.99322485923767,1.47760209441185
512780.99947684,49.51316311303526,0.0100233586108982,1.00233586108982e-05,0.48336523771286,-0.993110299110412,1.47647553682327
512783.484074989,51.997761261998676,0.0105263376620478,1.05263376620478e-05,0.482353270053863,-0.992862105369567,1.47521537542343
512785.766273288,54.27995956101222,0.010988343382183,1.0988343382183e-05,0.481341302394866,-0.99269026517868,1.47403156757354
512788.327071381,56.840757653990295,0.0115067485801743,1.15067485801743e-05,0.480310201644897,-0.992632985115051,1.47294318675994
512790.907869459,59.42155573202763,0.0120292029530935,1.2029202953093499e-05,0.4792982339859,-0.992480278015136,1.47177851200103
512793.515067515,62.02875378803583,0.0125570011531147,1.25570011531147e-05,0.478267163038253,-0.992232084274292,1.47049924731254
512796.359865395,64.87355166801717,0.0131328986118336,1.31328986118336e-05,0.477255195379257,-0.992098450660705,1.46935364603996
512799.100863359,67.61454963200958,0.0136877830107907,1.36877830107907e-05,0.476243197917938,-0.991888403892517,1.46813160181045
512801.985261203,70.49894747603685,0.01427169728949,1.4271697289489999e-05,0.475193053483963,-0.991773843765258,1.46696689724922
512804.928659005,73.44234527798835,0.0148675556502838,1.48675556502838e-05,0.474181056022644,-0.991659343242645,1.46584039926528
512807.774656885,76.28834315802669,0.0154436957467628,1.54436957467628e-05,0.473111808300018,-0.991563856601715,1.46467566490173
512811.23585431,79.74954058299772,0.0161443745846781,1.61443745846781e-05,0.472080737352371,-0.991182029247283,1.46326276659965
512814.304652018,82.81833829102106,0.0167656177569296,1.6765617756929598e-05,0.471049666404724,-0.990991115570068,1.46204078197479
512817.109249936,85.62293620902346,0.0173333765609661,1.7333376560966103e-05,0.470037668943405,-0.990895628929138,1.46093329787254
512820.651047294,89.16473356704228,0.0180503726369308,1.8050372636930798e-05,0.469025701284408,-0.990609288215637,1.45963498950004
512824.021044781,92.53473105403828,0.0187325922570626,1.87325922570626e-05,0.468013733625412,-0.990456521511077,1.45847025513649
512827.166842447,95.6805287200259,0.0193694230123129,1.9369423012312902e-05,0.466944456100463,-0.990399241447448,1.45734369754791
512830.753639772,99.26732604502467,0.0200955285477274,2.00955285477274e-05,0.465913385152816,-0.990284740924835,1.45619812607765
512834.082037286,102.5957235590322,0.0207693241535988,2.07693241535988e-05,0.464882314205169,-0.99003654718399,1.45491886138916
512837.285234905,105.79892117803684,0.0214177742559148,2.1417774255914802e-05,0.463851243257522,-0.989921987056732,1.45377323031425
512840.931032182,109.44471845502267,0.0221558231891923,2.21558231891923e-05,0.462820172309875,-0.989750146865844,1.45257031917572
512844.454429561,112.9681158339954,0.0228690939271913,2.28690939271913e-05,0.461789101362228,-0.989635586738586,1.45142468810081
512847.760427104,116.27411337703234,0.023538354913493,2.3538354913493e-05,0.46073892712593,-0.989425599575042,1.45016452670097
512851.406024382,119.9197106549982,0.0242763645306726,2.42763645306726e-05,0.459726959466934,-0.989349246025085,1.44907620549202
512854.695021939,123.20870821201243,0.0249421847792565,2.4942184779256497e-05,0.458714991807937,-0.989196479320526,1.44791147112846
512858.0966194,126.61030567303533,0.0256308007561961,2.5630800756196103e-05,0.45768392086029,-0.989024639129638,1.44670855998992
512861.542816834,130.05650310701458,0.0263284432842234,2.6328443284223397e-05,0.456671923398971,-0.988910138607025,1.44558206200599
512864.949614295,133.46330056799343,0.0270181110839678,2.70181110839678e-05,0.455659955739975,-0.988795578479766,1.44445553421974
512868.298411795,136.81209806801053,0.0276960363134013,2.7696036313401302e-05,0.454647988080978,-0.988738298416137,1.44338628649711
512871.442609458,139.95629573101178,0.0283325435911251,2.8332543591125098e-05,0.45359781384468,-0.988585531711578,1.44218334555625
512874.670007051,143.1836933240411,0.0289858943645391,2.8985894364539098e-05,0.452566742897033,-0.988299190998077,1.44086593389511
512878.075204515,146.58889078802895,0.0296752378087871,2.96752378087871e-05,0.451554775238037,-0.988318264484405,1.43987303972244
512881.279402124,149.79308839701116,0.0303238918293449,3.0323891829344902e-05,0.450542777776718,-0.988299190998077,1.43884196877479
512884.469199749,152.982886022015,0.0309696299859186,3.09696299859186e-05,0.449511706829071,-0.98822283744812,1.43773454427719
512887.590197422,156.10388369503198,0.0316014416477945,3.16014416477945e-05,0.448480635881424,-0.988031923770904,1.43651255965232
512890.720395093,159.2340813660412,0.0322351149369875,3.22351149369875e-05,0.447468668222427,-0.987936437129974,1.4354051053524
512893.721392857,162.2350791300414,0.0328426333193911,3.28426333193911e-05,0.446456670761108,-0.988031923770904,1.43448859453201
512896.767190584,165.28087685699575,0.0334592206345299,3.34592206345299e-05,0.445444703102111,-0.987802803516387,1.4332475066185
512899.633988456,168.14767472899985,0.0340395721894337,3.40395721894337e-05,0.444432735443115,-0.987650036811828,1.43208277225494
512902.536386291,171.05007256398676,0.0346271301460133,3.4627130146013296e-05,0.443401664495468,-0.9876309633255,1.43103262782096
512905.459584103,173.97327037603827,0.0352188968374762,3.52188968374762e-05,0.442389667034149,-0.987650036811828,1.43003970384597
512908.103982145,176.6176684180391,0.0357542253707746,3.57542253707746e-05,0.441339522600174,-0.987554609775543,1.42889413237571
512911.068179935,179.58186620799825,0.036354292552385,3.6354292552385005e-05,0.440308451652526,-0.987459123134613,1.42776757478714
512913.791377907,182.30506417999277,0.0369055723968843,3.69055723968843e-05,0.439258277416229,-0.987363696098327,1.42662197351455
512916.495575884,185.00926215702202,0.0374530055460962,3.74530055460962e-05,0.438227206468582,-0.987363696098327,1.42559090256691
512919.180573881,187.69426015403587,0.0379965530025263,3.79965530025263e-05,0.437215209007263,-0.98728734254837,1.42450255155563
512921.781571949,190.2952582220314,0.038523095649388,3.8523095649388004e-05,0.436203241348266,-0.987096428871154,1.42329967021942
512924.16497018,192.6786564530339,0.0390055880693958,3.90055880693958e-05,0.435153067111969,-0.987077295780181,1.42223036289215
512926.687968294,195.20165456703398,0.0395163399476309,3.95163399476309e-05,0.434141099452972,-0.987172782421112,1.42131388187408
512929.069566525,197.5832527980092,0.0399984664972126,3.99984664972126e-05,0.433129131793975,-0.986905515193939,1.42003464698791
512931.351964825,199.86565109802177,0.0404605109522177,4.04605109522177e-05,0.432117134332656,-0.986962735652923,1.41907986998558
512933.617163123,202.13084939599503,0.0409190735204385,4.0919073520438495e-05,0.43110516667366,-0.986943662166595,1.41804882884025
512935.957761382,204.4714476549998,0.0413928994237018,4.13928994237018e-05,0.430093199014663,-0.986867308616638,1.4169605076313
512938.099159795,206.61284606799018,0.0418263998143341,4.18263998143341e-05,0.429081201553344,-0.98684823513031,1.41592943668365
512940.245358189,208.75904446200002,0.0422608723450137,4.22608723450137e-05,0.428069233894348,-0.986752748489379,1.41482198238372
512942.326356643,210.84004291601013,0.0426821458510193,4.26821458510193e-05,0.427057236433029,-0.986810028553009,1.41386726498603
512944.268955191,212.78264146402944,0.0430754019277393,4.3075401927739304e-05,0.425987988710403,-0.986600041389465,1.41258803009986
512946.413953603,214.92763987602666,0.0435096313718126,4.35096313718126e-05,0.424976021051406,-0.986752748489379,1.41172876954078
512948.334552159,216.8482384320232,0.0438984343152708,4.3898434315270806e-05,0.423964023590087,-0.986523628234863,1.41048765182495
512950.236150747,218.74983702000463,0.0442833900433513,4.42833900433513e-05,0.422952055931091,-0.986580908298492,1.40953296422958
512952.197949292,220.71163556503598,0.0446805324595438,4.46805324595438e-05,0.421901881694793,-0.986409127712249,1.40831100940704
512954.123747851,222.63743412401527,0.0450703879269427,4.50703879269427e-05,0.420889914035797,-0.986447274684906,1.4073371887207
512955.884946545,224.3986328180181,0.0454269213940434,4.5426921394043394e-05,0.4198779463768,-0.986466348171234,1.40634429454803
512957.566145289,226.07983156200498,0.0457672597593731,4.5767259759373093e-05,0.418865948915481,-0.986504554748535,1.40537050366401
512959.288744011,227.80243028403493,0.046115979112837,4.6115979112837e-05,0.417853981256485,-0.98625636100769,1.40411034226417
512960.971742752,229.4854290250223,0.0464566816017362,4.6456681601736204e-05,0.416822910308837,-0.986332714557647,1.40315562486648
512962.548941573,231.06262784602586,0.0467759660353726,4.6775966035372605e-05,0.415810912847518,-0.986199080944061,1.40200999379158
512964.112740406,232.626426679024,0.0470925378739734,4.70925378739734e-05,0.414798945188522,-0.986180007457733,1.40097895264625
512965.576139321,234.08982559404103,0.0473887850632203,4.73887850632203e-05,0.413748770952224,-0.986160933971405,1.39990970492363
512967.216338096,235.73002436902607,0.0477208230374521,4.77208230374521e-05,0.412736803293228,-0.986180007457733,1.39891681075096
512968.59673707,237.11042334302329,0.0480002671861482,4.80002671861482e-05,0.411724835634231,-0.986180007457733,1.39790484309196
512970.022336,238.5360222730087,0.0482888620078364,4.82888620078364e-05,0.410674661397934,-0.986065447330474,1.3967401087284
512971.445334954,239.95902122702682,0.0485769305894606,4.8576930589460604e-05,0.409662693738937,-0.986046373844146,1.39570906758308
512972.703334009,241.21702028199797,0.0488315973874893,4.88315973874893e-05,0.408650696277618,-0.986218214035034,1.39486891031265
512974.046333009,242.56001928204205,0.0491034709271755,4.91034709271755e-05,0.407638728618621,-0.986065447330474,1.39370417594909
512975.363332023,243.87701829598518,0.0493700813094046,4.93700813094046e-05,0.406550377607345,-0.986008167266845,1.39255854487419
512976.566731133,245.08041740598856,0.0496136948217848,4.96136948217848e-05,0.405538380146026,-0.986008167266845,1.39154654741287
512977.771130228,246.28481650102185,0.0498575108393397,4.98575108393397e-05,0.40452641248703,-0.985950887203216,1.39047729969024
512979.031729295,247.54541556799086,0.0501127040906349,5.01127040906349e-05,0.403495341539382,-0.986027240753173,1.38952258229255
512980.151728457,248.66541473002871,0.0503394343922436,5.03394343922436e-05,0.402483373880386,-0.985989093780517,1.3884724676609
512981.231927657,249.7456139299902,0.0505581079326834,5.05581079326834e-05,0.401452302932739,-0.985893607139587,1.38734591007232
512982.272326873,250.78601314598927,0.050768724785149,5.0768724785149004e-05,0.400402128696441,-0.986008167266845,1.38641029596328
512983.394926039,251.90861231199233,0.0509959818950791,5.0995981895079094e-05,0.399371057748794,-0.985950887203216,1.38532194495201
512984.479725239,252.9934115119977,0.0512155864845977,5.12155864845977e-05,0.398359090089798,-0.985874533653259,1.38423362374305
512985.401524545,253.91521081799874,0.0514021937605274,5.14021937605274e-05,0.39732801914215,-0.98591274023056,1.38324075937271
512986.4037238,254.91741007298697,0.0516050767345461,5.16050767345461e-05,0.396258741617202,-0.985931813716888,1.38219055533409
512987.304523123,255.81820939603494,0.0517874333842926,5.1787433384292596e-05,0.395227670669555,-0.985950887203216,1.38117855787277
512988.243722425,256.7574086980312,0.0519775631076428,5.1977563107642804e-05,0.394215703010559,-0.985970020294189,1.38018572330474
512989.06652182,257.58020809298614,0.0521441300470067,5.21441300470067e-05,0.39320370554924,-0.985798180103302,1.37900188565254
512989.968721145,258.48240741802147,0.0523267699639134,5.23267699639134e-05,0.392153561115264,-0.985836327075958,1.37798988819122
512990.827720506,259.3414067790145,0.052500663915144,5.2500663915144e-05,0.391141563653945,-0.985893607139587,1.37703517079353
512991.651519889,260.16520616202615,0.0526674328106641,5.26674328106641e-05,0.39007231593132,-0.985874533653259,1.37594684958457
512992.472519281,260.9862055539852,0.0528336351953248,5.28336351953248e-05,0.389041244983673,-0.985970020294189,1.37501126527786
512993.234318712,261.7480049850419,0.0529878522744476,5.2987852274447596e-05,0.388029247522354,-0.985989093780517,1.37401834130287
512993.995118142,262.5088044150034,0.0531418675417204,5.31418675417204e-05,0.386998176574707,-0.985759973526001,1.3727581501007
512994.753117582,263.2668038550182,0.0532953164616889,5.3295316461688896e-05,0.385871648788452,-0.985874533653259,1.37174618244171
512995.495117025,264.0088032979984,0.053445525637716,5.3445525637716e-05,0.384859681129455,-0.985855460166931,1.37071514129638
512996.122116559,264.63580283202464,0.0535724544924398,5.3572454492439805e-05,0.383847683668136,-0.985798180103302,1.36964586377143
512996.796916058,265.31060233101016,0.0537090601447688,5.3709060144768794e-05,0.382816612720489,-0.98591274023056,1.36872935295105
512997.45831556,265.9720018330263,0.0538429528350598,5.38429528350598e-05,0.381804645061492,-0.98581725358963,1.36762189865112
512998.096715091,266.61040136398515,0.0539721894258293,5.39721894258293e-05,0.380792677402496,-0.985779047012329,1.36657172441482
512998.660314672,267.17400094500044,0.0540862834635409,5.40862834635409e-05,0.379761576652526,-0.985893607139587,1.36565518379211
512999.242314229,267.756000502035,0.0542041022080845,5.4204102208084496e-05,0.378730505704879,-0.985931813716888,1.36466231942176
512999.844313788,268.3580000610091,0.0543259697024524,5.4325969702452395e-05,0.377699434757232,-0.98591274023056,1.36361217498779
513000.401313369,268.91499964200193,0.0544387274531423,5.44387274531423e-05,0.376668363809585,-0.985759973526001,1.36242833733558
513000.940312973,269.45399924600497,0.0545478413756125,5.45478413756125e-05,0.375656396150589,-0.98581725358963,1.36147364974021
513001.462712577,269.97639885003446,0.0546535951796935,5.46535951796935e-05,0.374644428491592,-0.985779047012329,1.36042347550392
513001.95071222,270.4643984930008,0.0547523853420118,5.47523853420118e-05,0.373632431030273,-0.985740900039672,1.35937333106994
513002.443711856,270.9573981289868,0.0548521876302725,5.48521876302725e-05,0.372620463371276,-0.985893607139587,1.35851407051086
513002.945511484,271.45919775700895,0.0549537711035377,5.49537711035377e-05,0.371570289134979,-0.985836327075958,1.35740661621093
513003.389311147,271.9029974199948,0.0550436132739252,5.50436132739252e-05,0.370558321475982,-0.985721826553344,1.35628014802932
513003.826510822,272.34019709500717,0.0551321194163163,5.51321194163163e-05,0.369527250528335,-0.985798180103302,1.35532543063163
513004.268510488,272.7821967609925,0.0552215973976486,5.52215973976486e-05,0.368477076292038,-0.985779047012329,1.35425612330436
513004.703910166,273.2175964390044,0.0553097390572792,5.53097390572792e-05,0.367465108633041,-0.985740900039672,1.35320600867271
513005.105109872,273.6187961450196,0.0553909573021199,5.53909573021199e-05,0.366453111171722,-0.985893607139587,1.35234671831131
513005.527709551,274.0413958239951,0.0554765078664918,5.5476507866491804e-05,0.365441143512725,-0.985798180103302,1.35123932361602
513005.912109271,274.4257955439971,0.0555543251658711,5.55543251658711e-05,0.364410072565078,-0.985893607139587,1.35030367970466
513006.270708994,274.7843952670228,0.0556269196184145,5.56269196184145e-05,0.363359898328781,-0.985740900039672,1.34910079836845
513006.668708706,275.18239497899776,0.0557074900238248,5.57074900238248e-05,0.362309753894805,-0.98581725358963,1.34812700748443
513007.030708433,275.54439470602665,0.0557807726359863,5.5780772635986296e-05,0.361278682947158,-0.985740900039672,1.34701958298683
513007.372908176,275.8865944489953,0.0558500470282137,5.58500470282137e-05,0.36020940542221,-0.98591274023056,1.34612214565277
513007.731307914,276.2449941870291,0.0559226007798347,5.59226007798347e-05,0.359140157699585,-0.98591274023056,1.34505289793014
513008.073107661,276.58679393399507,0.0559917942922479,5.59917942922479e-05,0.358109086751937,-0.985874533653259,1.34398362040519
513008.392107417,276.90579369000625,0.0560563722282217,5.6056372228221695e-05,0.357020735740661,-0.985874533653259,1.34289526939392
513008.6943072,277.20799347304273,0.0561175492287377,5.61175492287377e-05,0.355989664793014,-0.98591274023056,1.34190240502357
513009.01250696,277.52619323303225,0.056181965123352,5.6181965123352e-05,0.354958564043045,-0.985836327075958,1.340794891119
513009.296306746,277.8099930190365,0.0562394172441164,5.62394172441164e-05,0.353927493095397,-0.985874533653259,1.33980202674865
513009.593106523,278.1067927959957,0.0562995008325974,5.6299500832597404e-05,0.352800965309143,-0.985931813716888,1.33873277902603
513009.877306314,278.3909925870248,0.0563570339006615,5.6357033900661496e-05,0.351788997650146,-0.985893607139587,1.33768260478973
513010.133706128,278.6473924010061,0.0564089391587244,5.64089391587244e-05,0.350777000188827,-0.985759973526001,1.33653697371482
513010.394105924,278.90779219701653,0.0564616542509794,5.6461654250979395e-05,0.34974592924118,-0.985874533653259,1.33562046289444
513010.637905748,279.1515920209931,0.0565110087898174,5.65110087898174e-05,0.348733961582183,-0.98591274023056,1.33464670181274
513010.88250557,279.39619184302865,0.0565605253326131,5.65605253326131e-05,0.347721993923187,-0.98581725358963,1.33353924751281
513011.115305384,279.6289916569949,0.0566076529805229,5.66076529805229e-05,0.346690893173217,-0.98591274023056,1.33260363340377
513011.354905216,279.8685914890375,0.0566561573627392,5.66561573627392e-05,0.345640748739242,-0.985970020294189,1.33161076903343
513011.576905047,280.0905913200113,0.0567010987077719,5.67010987077719e-05,0.344609677791595,-0.985950887203216,1.33056056499481
513011.795504884,280.3091911569936,0.056745351719386,5.6745351719386003e-05,0.343559503555297,-0.985989093780517,1.32954859733581
513012.015704719,280.52939099201467,0.0567899285615517,5.67899285615517e-05,0.342547535896301,-0.985931813716888,1.32847934961319
513012.216104568,280.72979084099643,0.0568304971755941,5.68304971755941e-05,0.341478258371353,-0.985893607139587,1.32737186551094
513012.420104419,280.9337906920118,0.05687179459999,5.687179459999e-05,0.340409010648727,-0.985989093780517,1.32639810442924
513012.617304264,281.1309905369999,0.0569117153470019,5.69117153470019e-05,0.339397013187408,-0.985931813716888,1.32532882690429
513012.797504136,281.31119040900376,0.056948194756776,5.6948194756776e-05,0.338385045528411,-0.986008167266845,1.32439321279525
513012.995703986,281.50939025898697,0.0569883179623517,5.6988317962351703e-05,0.337353974580764,-0.985931813716888,1.32328578829765
513013.161103869,281.6747901419876,0.0570218012438449,5.70218012438449e-05,0.336342006921768,-0.986027240753173,1.32236924767494
513013.335703728,281.8493900010362,0.0570571470446421,5.70571470446421e-05,0.335310935974121,-0.985970020294189,1.32128095626831
513013.496503614,282.0101898870198,0.0570896991042229,5.70896991042229e-05,0.334279865026474,-0.985970020294189,1.32024988532066
513013.658103497,282.1717897700146,0.0571224131940007,5.71224131940007e-05,0.333267867565155,-0.985931813716888,1.31919968128204
513013.818103381,282.3317896540393,0.057154803359525,5.7154803359524996e-05,0.332236796617507,-0.985970020294189,1.31820681691169
513013.975903265,282.48958953801775,0.0571867480289836,5.71867480289836e-05,0.331224828958511,-0.985970020294189,1.3171948492527
513014.119703148,282.6333894210402,0.057215858654095,5.7215858654095004e-05,0.330212861299514,-0.986027240753173,1.31624010205268
513014.257903056,282.77158932900056,0.0572438357140752,5.72438357140752e-05,0.329181760549545,-0.986065447330474,1.31524720788002
513014.400302938,282.9139892110252,0.0572726629856526,5.72726629856526e-05,0.328169792890548,-0.986046373844146,1.31421616673469
513014.537902846,283.05158911901526,0.0573005185067156,5.73005185067156e-05,0.327138721942901,-0.986046373844146,1.31318509578704
513014.677102731,283.1907890040311,0.0573286980087856,5.73286980087856e-05,0.326088547706604,-0.985931813716888,1.31202036142349
513014.800102641,283.3137889140053,0.0573535980032616,5.73535980032616e-05,0.325076580047607,-0.986027240753173,1.31110382080078
513014.923102552,283.4367888250272,0.0573784979511499,5.73784979511499e-05,0.32406461238861,-0.986008167266845,1.31007277965545
513015.05790245,283.57158872298896,0.0574057866317364,5.7405786631736397e-05,0.323033541440963,-0.986065447330474,1.30909898877143
513015.174702363,283.6883886359865,0.0574294315040773,5.74294315040773e-05,0.322002470493316,-0.98591274023056,1.30791521072387
513015.282302286,283.7959885590244,0.0574512138065662,5.74512138065662e-05,0.320990473031997,-0.986084520816803,1.3070749938488
513015.398702192,283.912388465018,0.0574747776706053,5.74747776706053e-05,0.319978505373001,-0.986084520816803,1.3060630261898
513015.517102109,284.03078838199144,0.057498746319635,5.7498746319635e-05,0.318928331136703,-0.985970020294189,1.30489835143089
513015.618702029,284.1323883020086,0.0575193139632112,5.75193139632112e-05,0.317897260189056,-0.986103653907775,1.30400091409683
513015.72050196,284.23418823303655,0.0575399220278859,5.7539922027885905e-05,0.316885292530059,-0.986122727394104,1.30300801992416
513015.822701888,284.33638816099847,0.0575606112433473,5.7560611243347296e-05,0.31587329506874,-0.986046373844146,1.30191966891288
513015.919101813,284.43278808600735,0.0575801262612276,5.7580126261227596e-05,0.314823150634765,-0.986180007457733,1.30100315809249
513016.019901732,284.533588004997,0.0576005320414801,5.76005320414801e-05,0.313772976398468,-0.986008167266845,1.29978114366531
513016.118701657,284.63238793000346,0.0576205329239202,5.76205329239202e-05,0.312627345323562,-0.986046373844146,1.2986737191677
513016.219901587,284.73358786001336,0.0576410196878049,5.76410196878049e-05,0.311615347862243,-0.986180007457733,1.29779535531997
513016.300101524,284.81378779700026,0.057657255200684,5.7657255200684004e-05,0.310603380203247,-0.986103653907775,1.29670703411102
513016.397701447,284.91138772002887,0.0576770131820738,5.76770131820738e-05,0.3095723092556,-0.986122727394104,1.2956950366497
513016.4781014,284.9917876730324,0.0576932892210284,5.76932892210284e-05,0.308541238307952,-0.986122727394104,1.29466396570205
513016.560101332,285.0737876050407,0.0577098891728321,5.7709889172832104e-05,0.307529270648956,-0.986122727394104,1.29365199804306
513016.639901274,285.15358754701447,0.05772604373461,5.7726043734610005e-05,0.306498199701309,-0.986046373844146,1.29254457354545
513016.719701215,285.2333874879987,0.0577421982659863,5.7742198265986294e-05,0.305448025465011,-0.986122727394104,1.29157075285911
513016.798501154,285.3121874270146,0.0577581504288514,5.77581504288514e-05,0.304378747940063,-0.986046373844146,1.29042512178421
513016.877501098,285.3911873709876,0.0577741430015299,5.77741430015299e-05,0.303347676992416,-0.985989093780517,1.28933677077293
513016.944101053,285.4577873260132,0.0577876253981557,5.77876253981557e-05,0.302297532558441,-0.986103653907775,1.28840118646621
513017.019300987,285.53298726002686,0.0578028487627175,5.78028487627175e-05,0.301266461610794,-0.986141800880432,1.28740826249122
513017.082700939,285.5963872119901,0.0578156833717922,5.78156833717922e-05,0.300254464149475,-0.986180007457733,1.2864344716072
513017.158300889,285.67198716202984,0.0578309876803027,5.7830987680302704e-05,0.299242496490478,-0.986046373844146,1.28528887033462
513017.218300842,285.7319871149957,0.0578431340323421,5.78431340323421e-05,0.298211425542831,-0.986008167266845,1.28421959280967
513017.280300796,285.7939870689879,0.05785568520237,5.785568520237e-05,0.297123074531555,-0.986141800880432,1.28326487541198
513017.343700749,285.8573870219989,0.0578685197881029,5.78685197881029e-05,0.296053797006607,-0.986199080944061,1.28225287795066
513017.405700703,285.9193869759911,0.0578810710114902,5.7881071011490196e-05,0.295003652572631,-0.986275434494018,1.28127908706665
513017.465100657,285.9787869300344,0.0578930958743989,5.78930958743989e-05,0.293991655111312,-0.986237287521362,1.28022894263267
513017.524100609,286.03778688202146,0.0579050396853884,5.79050396853884e-05,0.292960584163665,-0.986199080944061,1.27915966510772
513017.581700569,286.0953868420329,0.0579167001209855,5.79167001209855e-05,0.29181495308876,-0.986141800880432,1.27795675396919
513017.640700528,286.1543868010049,0.0579286439433726,5.7928643943372595e-05,0.290802985429763,-0.986122727394104,1.27692571282386
513017.69790049,286.2115867630346,0.0579402234020696,5.79402234020696e-05,0.289790987968444,-0.986141800880432,1.27593278884887
513017.742900446,286.2565867190133,0.057949333147933,5.7949333147933e-05,0.288779020309448,-0.986218214035034,1.27499723434448
513017.800100406,286.3137866790057,0.057960912575884,5.7960912575883995e-05,0.287767052650451,-0.986122727394104,1.27388978004455
513017.845100377,286.358786650002,0.057970022299091,5.7970022299090995e-05,0.286735981702804,-0.986275434494018,1.27301141619682
513017.896500332,286.4101866050041,0.0579804276114801,5.7980427611480097e-05,0.285685807466507,-0.986084520816803,1.27177032828331
513017.942700307,286.45638658001553,0.0579897802826265,5.7989780282626506e-05,0.284654736518859,-0.986275434494018,1.27093017101287
513017.984700271,286.4983865440008,0.0579982826715906,5.79982826715906e-05,0.283642768859863,-0.986180007457733,1.26982277631759
513018.039300238,286.5529865110293,0.0580093357824616,5.8009335782461596e-05,0.282630771398544,-0.986122727394104,1.26875349879264
513018.081900196,286.5955864689895,0.0580179596347577,5.8017959634757695e-05,0.281561523675918,-0.986180007457733,1.26774153113365
513018.122100167,286.6357864399906,0.0580260975974831,5.8026097597483104e-05,0.280549526214599,-0.986275434494018,1.26682496070861
513018.163500145,286.67718641803367,0.0580344785562886,5.80344785562886e-05,0.279537558555603,-0.986237287521362,1.26577484607696
513018.201300112,286.7149863850209,0.0580421307443214,5.80421307443214e-05,0.278525590896606,-0.986237287521362,1.26476287841796
513018.244100074,286.7577863470069,0.0580507950697077,5.80507950697077e-05,0.277494519948959,-0.98625636100769,1.26375088095665
513018.28550005,286.7991863230127,0.0580591760599546,5.80591760599546e-05,0.27648252248764,-0.986180007457733,1.26266252994537
513018.323100024,286.83678629703354,0.0580667877703242,5.80667877703242e-05,0.275470554828643,-0.986218214035034,1.26168876886367
513018.361299989,286.8749862620025,0.0580745209281875,5.8074520928187495e-05,0.274458587169647,-0.986103653907775,1.26056224107742
513018.398899957,286.91258623002796,0.0580821326042148,5.8082132604214797e-05,0.273427516222,-0.986141800880432,1.25956931710243
513018.436699935,286.9503862080164,0.0580897847533822,5.80897847533822e-05,0.272396445274353,-0.986065447330474,1.25846189260482
513018.47229991,286.98598618299,0.058096991559522,5.8096991559522e-05,0.271384447813034,-0.986141800880432,1.25752624869346
513018.503699887,287.0173861600342,0.0581033480901254,5.81033480901254e-05,0.270334303379058,-0.986237287521362,1.25657159090042
513018.540499864,287.05418613698566,0.0581107977551784,5.8110797755178395e-05,0.269322305917739,-0.986237287521362,1.2555595934391
513018.570699842,287.0843861150206,0.0581169114045964,5.8116911404596396e-05,0.268253058195114,-0.986122727394104,1.25437578558921
513018.603299817,287.11698609002633,0.0581235108906328,5.81235108906328e-05,0.267164707183837,-0.986180007457733,1.25334471464157
513018.640099784,287.15378605702426,0.058130960621443,5.8130960621442995e-05,0.266152709722518,-0.986122727394104,1.25227543711662
513018.670899761,287.18458603403997,0.0581371956819395,5.81371956819395e-05,0.265121638774871,-0.986218214035034,1.2513398528099
513018.702099738,287.21578601101646,0.0581435117359459,5.8143511735945904e-05,0.264109671115875,-0.986275434494018,1.25038510560989
513018.73029972,287.24398599303095,0.0581492205066184,5.81492205066184e-05,0.263059496879577,-0.986237287521362,1.24929678440094
513018.7598997,287.27358597301645,0.0581552127004497,5.81552127004497e-05,0.262047529220581,-0.98625636100769,1.24830389022827
513018.791099676,287.3047859490034,0.0581615287696884,5.81615287696884e-05,0.261016458272934,-0.986084520816803,1.24710097908973
513018.819099656,287.33278592902934,0.0581671970326536,5.81671970326536e-05,0.259985387325286,-0.986160933971405,1.24614632129669
513018.844099632,287.35778590501286,0.0581722579868137,5.81722579868137e-05,0.258973389863967,-0.98625636100769,1.24522975087165
513018.874099608,287.38778588100104,0.0581783311037884,5.81783311037884e-05,0.257961422204971,-0.986046373844146,1.24400779604911
513018.898899584,287.41258585703326,0.0581833515742586,5.81833515742586e-05,0.256930351257324,-0.986122727394104,1.24305307865142
513018.92369957,287.437385843019,0.0581883720772862,5.8188372077286203e-05,0.255918383598327,-0.986199080944061,1.24211746454238
513018.947699559,287.46138583199354,0.0581932305862208,5.81932305862208e-05,0.25488731265068,-0.986237287521362,1.24112460017204
513018.977099539,287.49078581202775,0.0581991822553641,5.81991822553641e-05,0.253856241703033,-0.986141800880432,1.23999804258346
513019.001099515,287.514785788022,0.0582040407875975,5.82040407875975e-05,0.252825170755386,-0.986084520816803,1.23890969157218
513019.023899491,287.5375857640174,0.058208656393773,5.8208656393772997e-05,0.251736789941787,-0.986218214035034,1.23795500397682
513019.04689948,287.56058575300267,0.0582133124680916,5.82133124680916e-05,0.250724822282791,-0.986180007457733,1.23690482974052
513019.07069947,287.58438574301545,0.0582181305029028,5.82181305029028e-05,0.249712839722633,-0.986294567584991,1.23600740730762
513019.096699445,287.6103857179987,0.0582233939454125,5.822339394541249e-05,0.248700857162475,-0.986065447330474,1.23476630449295
513019.118299421,287.6319856939954,0.0582277665728794,5.8227766572879396e-05,0.247688889503479,-0.986103653907775,1.23379254341125
513019.139699412,287.6533856850001,0.0582320987261931,5.82320987261931e-05,0.246676906943321,-0.986046373844146,1.23272328078746
513019.158899399,287.6725856720004,0.0582359855630331,5.82359855630331e-05,0.245645835995674,-0.986141800880432,1.2317876368761
513019.181099375,287.6947856480256,0.0582404796492589,5.82404796492589e-05,0.244500190019607,-0.986065447330474,1.23056563735008
513019.204099362,287.71778563503176,0.0582451357112129,5.82451357112129e-05,0.243430942296981,-0.986160933971405,1.22959187626838
513019.224499352,287.73818562499946,0.0582492654490205,5.82492654490205e-05,0.242418959736824,-0.986237287521362,1.22865624725818
513019.244699329,287.75838560203556,0.0582533547155161,5.82533547155161e-05,0.241406977176666,-0.986199080944061,1.22760605812072
513019.263699321,287.77738559403224,0.0582572010209593,5.82572010209593e-05,0.240356817841529,-0.986218214035034,1.22657503187656
513019.284099306,287.7977855789941,0.058261330778602,5.8261330778602e-05,0.239344835281372,-0.986313641071319,1.22565847635269
513019.303499283,287.8171855559922,0.0582652580842806,5.8265258084280596e-05,0.238180100917816,-0.986218214035034,1.22439831495285
513019.324099278,287.83778555103345,0.0582694282905889,5.82694282905889e-05,0.23703446984291,-0.986180007457733,1.22321447730064
513019.344499259,287.85818553203717,0.0582735580298271,5.82735580298271e-05,0.235984310507774,-0.986237287521362,1.22222159802913
513019.36389924,287.8775855129934,0.0582774853082597,5.82774853082597e-05,0.234953239560127,-0.986084520816803,1.22103776037693
513019.382299237,287.89598551002564,0.0582812101634177,5.82812101634177e-05,0.233941256999969,-0.986122727394104,1.22006398439407
513019.400299212,287.9139854850364,0.058284854055802,5.8284854055802e-05,0.232833802700042,-0.986141800880432,1.21897560358047
513019.418499207,287.9321854800219,0.0582885384198758,5.8288538419875804e-05,0.231821835041046,-0.986084520816803,1.21790635585784
513019.435899189,287.94958546198905,0.0582920608637266,5.82920608637266e-05,0.230790749192237,-0.986065447330474,1.21685619652271
513019.449899183,287.96358545601834,0.0582948950385219,5.82948950385219e-05,0.229740589857101,-0.986141800880432,1.21588239073753
513019.466899166,287.98058543901425,0.0582983365026646,5.8298336502664597e-05,0.228690430521965,-0.986180007457733,1.21487043797969
513019.483699156,287.9973854289856,0.0583017374637027,5.83017374637027e-05,0.227659344673156,-0.986141800880432,1.21380114555358
513019.500299143,288.01398541603703,0.0583050979438821,5.8305097943882095e-05,0.22664737701416,-0.986065447330474,1.21271282434463
513019.51629913,288.0299854030018,0.0583083369412389,5.83083369412389e-05,0.225635394454002,-0.985950887203216,1.21158628165721
513019.53249912,288.0461853930028,0.0583116164098878,5.83116164098878e-05,0.224566131830215,-0.986065447330474,1.21063157916069
513019.545099111,288.058785383997,0.0583141671392321,5.83141671392321e-05,0.223554164171218,-0.986275434494018,1.20982959866523
513019.561499096,288.0751853690017,0.0583174871311717,5.83174871311717e-05,0.222465798258781,-0.986141800880432,1.20860759913921
513019.577099086,288.09078535903245,0.0583206451862885,5.83206451862885e-05,0.221453830599784,-0.986027240753173,1.20748107135295
513019.589899074,288.10358534700936,0.0583232363671296,5.8323236367129595e-05,0.220422759652137,-0.986199080944061,1.20662184059619
513019.605299068,288.11898534098873,0.0583263538989822,5.83263538989822e-05,0.21941077709198,-0.986180007457733,1.20559078454971
513019.62069905,288.13438532303553,0.0583294714909361,5.83294714909361e-05,0.218398794531822,-0.986046373844146,1.20444516837596
513019.634499048,288.14818532101344,0.0583322651590671,5.8332265159067104e-05,0.217310443520546,-0.985931813716888,1.20324225723743
513019.647299027,288.16098530002637,0.058334856377032,5.8334856377032e-05,0.216260284185409,-0.986122727394104,1.20238301157951
513019.662299027,288.17598530004034,0.0583378929383489,5.83378929383489e-05,0.215133741497993,-0.986046373844146,1.20118011534214
513019.678099004,288.1917852770421,0.0583410914400054,5.83410914400054e-05,0.214102655649185,-0.986122727394104,1.20022538304328
513019.688299003,288.20198527601315,0.0583431563118961,5.83431563118961e-05,0.213090687990188,-0.986084520816803,1.19917520880699
513019.701898993,288.2155852660071,0.0583459094549881,5.8345909454988096e-05,0.212059617042541,-0.985970020294189,1.19802963733673
513019.71689898,288.2305852530408,0.0583489460311664,5.83489460311664e-05,0.211047634482383,-0.985989093780517,1.1970367282629
513019.726298981,288.2399852540111,0.0583508489273985,5.83508489273985e-05,0.210016563534736,-0.986122727394104,1.19613929092884
513019.740898957,288.25458523002453,0.0583538045146829,5.83538045146829e-05,0.209004580974578,-0.985970020294189,1.19497460126876
513019.752298956,288.2659852289944,0.0583561122829748,5.8356112282974797e-05,0.207992613315582,-0.985950887203216,1.19394350051879
513019.763298949,288.2769852220081,0.0583583391086691,5.8358339108669096e-05,0.206961527466774,-0.986103653907775,1.19306518137455
513019.777498934,288.2911852070247,0.0583612137554685,5.8361213755468504e-05,0.205949559807777,-0.985989093780517,1.19193865358829
513019.786298933,288.29998520598747,0.0583629952162173,5.83629952162173e-05,0.204937577247619,-0.986199080944061,1.19113665819168
513019.799898916,288.3135851889965,0.0583657483727468,5.83657483727468e-05,0.203887417912483,-0.985950887203216,1.1898383051157
513019.81149891,288.3251851830282,0.0583680966798563,5.8368096679856294e-05,0.202837243676185,-0.985950887203216,1.1887881308794
513019.822498908,288.33618518098956,0.0583703235016697,5.83703235016697e-05,0.201825261116027,-0.986065447330474,1.1878907084465
513019.835498886,288.34918515902245,0.0583729551736215,5.83729551736215e-05,0.200813293457031,-0.986065447330474,1.1868787407875
513019.845298886,288.35898515902227,0.0583749390714698,5.83749390714698e-05,0.199667647480964,-0.986065447330474,1.18573309481144
513019.858098877,288.37178515002597,0.0583775302838087,5.8377530283808706e-05,0.198655679821968,-0.985893607139587,1.18454928696155
513019.866898862,288.3805851350189,0.0583793117258383,5.83793117258383e-05,0.197624608874321,-0.986103653907775,1.18372826278209
513019.879698863,288.39338513603434,0.0583819029240211,5.83819029240211e-05,0.196612626314163,-0.985931813716888,1.18254444003105
513019.889098854,288.40278512699297,0.0583838058361576,5.8383805836157595e-05,0.195581555366516,-0.986065447330474,1.18164700269699
513019.90049884,288.41418511304073,0.0583861136316425,5.83861136316425e-05,0.194493204355239,-0.985970020294189,1.18046322464942
513019.91149884,288.42518511303933,0.0583883404629925,5.83883404629925e-05,0.193423941731452,-0.986027240753173,1.17945118248462
513019.922298828,288.43598510103766,0.0583905268053478,5.83905268053478e-05,0.192373767495155,-0.985950887203216,1.17832465469837
513019.931498817,288.4451850900077,0.0583923892468545,5.8392389246854495e-05,0.191361799836158,-0.985931813716888,1.17729361355304
513019.942298817,288.45598508999683,0.0583945755750603,5.83945755750603e-05,0.190273433923721,-0.985989093780517,1.17626252770423
513019.953498804,288.4671850770246,0.0583968428897228,5.83968428897228e-05,0.189185082912445,-0.985836327075958,1.1750214099884
513019.963098793,288.4767850660137,0.0583987863038977,5.83987863038977e-05,0.188077643513679,-0.986046373844146,1.17412401735782
513019.974098793,288.4877850660123,0.0584010131264196,5.84010131264196e-05,0.187065660953521,-0.985893607139587,1.1729592680931
513019.983698783,288.4973850559909,0.0584029565066596,5.8402956506659604e-05,0.186034590005874,-0.986027240753173,1.17206183075904
513019.993098769,288.50678504200187,0.0584048594315151,5.8404859431515096e-05,0.185003519058227,-0.985893607139587,1.17089712619781
513020.00209877,288.5157850430114,0.0584066813777188,5.8406681377718804e-05,0.183991536498069,-0.98591274023056,1.16990427672863
513020.012298764,288.52598503703484,0.0584087462319433,5.8408746231943304e-05,0.182979553937912,-0.98591274023056,1.16889229416847
513020.02089875,288.5345850230078,0.0584104872122274,5.84104872122274e-05,0.181967586278915,-0.985855460166931,1.16782304644584
513020.029698747,288.54338501999155,0.0584122686415248,5.84122686415248e-05,0.180955603718757,-0.986008167266845,1.1669637709856
513020.039098748,288.5527850210201,0.0584141715858082,5.8414171585808204e-05,0.179943621158599,-0.985836327075958,1.16577994823455
513020.048098733,288.56178500602255,0.0584159935355385,5.8415993535538504e-05,0.178931653499603,-0.985855460166931,1.16478711366653
513020.057698724,288.5713849969907,0.0584179369557201,5.8417936955720095e-05,0.177919670939445,-0.985702693462371,1.16362236440181
513020.065698723,288.5793849960319,0.0584195564676423,5.8419556467642294e-05,0.176869496703147,-0.985950887203216,1.16282038390636
513020.075498716,288.58918498898856,0.0584215403863555,5.84215403863555e-05,0.175857529044151,-0.985740900039672,1.16159842908382
513020.083298703,288.5969849760295,0.058423119405402,5.8423119405402e-05,0.174845546483993,-0.985970020294189,1.16081556677818
513020.0916987,288.6053849729942,0.0584248198843134,5.8424819884313404e-05,0.173833563923835,-0.985893607139587,1.15972717106342
513020.100898701,288.61458497401327,0.0584266823336151,5.84266823336151e-05,0.172821596264839,-0.985893607139587,1.15871520340442
513020.10849869,288.62218496302376,0.0584282208601766,5.84282208601766e-05,0.171809613704681,-0.985931813716888,1.15774142742157
513020.118098676,288.631784948986,0.0584301642573807,5.84301642573807e-05,0.170797631144523,-0.985759973526001,1.15655760467052
513020.125698677,288.6393849499873,0.0584317027694516,5.8431702769451604e-05,0.169785648584365,-0.985893607139587,1.15567925572395
513020.135498674,288.6491849470185,0.0584336866655151,5.84336866655151e-05,0.168754577636718,-0.985740900039672,1.15449547767639
513020.142698662,288.65638493502047,0.0584351441982189,5.84351441982189e-05,0.167704418301582,-0.985931813716888,1.15363623201847
513020.150698654,288.66438492701855,0.0584367637048595,5.84367637048595e-05,0.166692435741424,-0.985931813716888,1.15262424945831
513020.160098653,288.67378492600983,0.0584386666208571,5.84386666208571e-05,0.165642276406288,-0.985798180103302,1.15144045650959
513020.166898651,288.6805849240045,0.0584400431939959,5.84400431939959e-05,0.164611205458641,-0.98591274023056,1.1505239456892
513020.176298635,288.6899849080364,0.0584419461266266,5.84419461266266e-05,0.163599222898483,-0.985721826553344,1.14932104945182
513020.184298631,288.6979849039926,0.0584435656261709,5.8443565626170904e-05,0.162549063563346,-0.985893607139587,1.14844267070293
513020.192698631,288.70638490404235,0.058445266105079,5.8445266105079e-05,0.161517977714538,-0.985874533653259,1.14739251136779
513020.200698623,288.71438489604043,0.0584468855855465,5.84468855855465e-05,0.160391449928283,-0.985759973526001,1.14615142345428
513020.208698609,288.7223848820431,0.058448505106671,5.8448505106671e-05,0.159379467368125,-0.985759973526001,1.14513944089412
513020.217298607,288.7309848800069,0.0584502460639708,5.84502460639708e-05,0.158348396420478,-0.985683619976043,1.14403201639652
513020.224098607,288.7377848800388,0.0584516226204931,5.8451622620493106e-05,0.157298222184181,-0.985721826553344,1.14302004873752
513020.232698598,288.74638487101765,0.0584533635774221,5.84533635774221e-05,0.156248062849044,-0.985702693462371,1.14195075631141
513020.240298586,288.7539848590386,0.0584549021135336,5.84549021135336e-05,0.155236080288887,-0.985664546489715,1.1409006267786
513020.248298584,288.7619848570321,0.0584565216406749,5.84565216406749e-05,0.154205009341239,-0.985740900039672,1.13994590938091
513020.256898585,288.77058485802263,0.0584582626110348,5.84582626110348e-05,0.153116658329963,-0.985664546489715,1.13878120481967
513020.263698576,288.7773848490324,0.0584596391869916,5.8459639186991595e-05,0.152104675769805,-0.985740900039672,1.13784557580947
513020.271298563,288.7849848360056,0.0584611777336961,5.84611777336961e-05,0.151092693209648,-0.985721826553344,1.13681451976299
513020.279498561,288.79318483400857,0.0584628377427392,5.8462837742739203e-05,0.150080725550651,-0.985664546489715,1.13574527204036
513020.28569856,288.7993848330225,0.0584640928447279,5.84640928447279e-05,0.149068742990493,-0.985779047012329,1.13484779000282
513020.295298552,288.80898482503835,0.0584660362794002,5.8466036279400205e-05,0.148037672042846,-0.98581725358963,1.13385492563247
513020.301698541,288.81538481399184,0.0584673318784733,5.84673318784733e-05,0.147006601095199,-0.985645413398742,1.13265201449394
513020.308898538,288.822584811016,0.0584687894348701,5.84687894348701e-05,0.145956426858902,-0.985836327075958,1.13179275393486
513020.317698537,288.831384810037,0.058470570906596,5.8470570906596e-05,0.144944459199905,-0.985607266426086,1.13055172562599
513020.323298534,288.83698480698513,0.0584717045480178,5.8471704548017797e-05,0.143932476639747,-0.985740900039672,1.12967337667942
513020.330698521,288.84438479400706,0.0584732025834918,5.84732025834918e-05,0.142844125628471,-0.985721826553344,1.12856595218181
513020.339498515,288.8531847880222,0.0584749840502706,5.84749840502706e-05,0.141832143068313,-0.985607266426086,1.1274394094944
513020.346098514,288.8597847869969,0.0584763201333847,5.84763201333847e-05,0.140686511993408,-0.98581725358963,1.12650376558303
513020.35509851,288.8687847830006,0.0584781421170665,5.84781421170665e-05,0.13963633775711,-0.985588133335113,1.12522447109222
513020.362498497,288.8761847700225,0.0584796401567823,5.84796401567823e-05,0.138490706682205,-0.985740900039672,1.12423160672187
513020.369498491,288.88318476401037,0.0584810572351614,5.84810572351614e-05,0.137459635734558,-0.985702693462371,1.12316232919693
513020.37829849,288.89198476303136,0.0584828387107617,5.84828387107617e-05,0.136333093047142,-0.985759973526001,1.12209306657314
513020.384898489,288.89858476200607,0.0584841748037636,5.84841748037636e-05,0.135263830423355,-0.985759973526001,1.12102380394935
513020.392898475,288.90658474800875,0.0584857942856418,5.84857942856418e-05,0.134156391024589,-0.985607266426086,1.11976365745067
513020.400898468,288.91458474099636,0.0584874138028787,5.8487413802878706e-05,0.133144408464431,-0.985607266426086,1.11875167489051
513020.406898468,288.9205847409903,0.0584886284349594,5.8488628434959405e-05,0.132132425904274,-0.98581725358963,1.1179496794939
513020.415498467,288.9291847400018,0.0584903693841199,5.84903693841199e-05,0.130967706441879,-0.985683619976043,1.11665132641792
513020.422898454,288.9365847270237,0.0584918674330082,5.84918674330082e-05,0.129917532205581,-0.985702693462371,1.11562022566795
513020.429498443,288.9431847159867,0.0584932035182416,5.8493203518241604e-05,0.128829181194305,-0.985759973526001,1.1145891547203
513020.437898444,288.951584717026,0.0584949040335781,5.84949040335781e-05,0.127759918570518,-0.985454499721527,1.11321441829204
513020.444898446,288.9585847189883,0.0584963210957017,5.84963210957017e-05,0.12674793601036,-0.985740900039672,1.11248883605003
513020.452098434,288.96578470699023,0.0584977786662148,5.84977786662148e-05,0.125564113259315,-0.985569059848785,1.1111331731081
513020.460898419,288.9745846920414,0.0584995601103604,5.84995601103604e-05,0.124513946473598,-0.985702693462371,1.11021663993597
513020.466298421,288.9799846939859,0.0585006532613999,5.85006532613999e-05,0.123501971364021,-0.985664546489715,1.10916651785373
513020.475098421,288.9887846939964,0.0585024347175624,5.85024347175624e-05,0.122413612902164,-0.985569059848785,1.10798267275095
513020.482098413,288.9957846860052,0.0585038518005212,5.85038518005212e-05,0.121401637792587,-0.985626339912414,1.107027977705
513020.488098403,289.00178467598744,0.0585050664198895,5.85050664198895e-05,0.12038966268301,-0.985740900039672,1.10613056272268
513020.496498398,289.0101846710313,0.0585067668910457,5.8506766891045695e-05,0.119377680122852,-0.985492706298828,1.10487038642168
513020.502498397,289.0161846700357,0.0585079815365705,5.8507981536570494e-05,0.118365705013275,-0.985798180103302,1.10416388511657
513020.508498398,289.0221846710192,0.0585091961728996,5.85091961728996e-05,0.117353722453117,-0.985798180103302,1.10315190255641
513020.516298385,289.0299846580019,0.0585107751905554,5.85107751905554e-05,0.1163035556674,-0.985454499721527,1.10175805538892
513020.522898374,289.0365846470231,0.058512111288872,5.8512111288872e-05,0.115177020430564,-0.985607266426086,1.10078428685665
513020.530498375,289.0441846480244,0.05851364979988,5.851364979988e-05,0.114145942032337,-0.985588133335113,1.09973407536745
513020.538698376,289.05238464899594,0.0585153097788658,5.85153097788658e-05,0.11311487108469,-0.985569059848785,1.09868393093347
513020.544298367,289.0579846400069,0.0585164434446825,5.85164434446825e-05,0.112102895975112,-0.985702693462371,1.09780558943748
513020.552098354,289.0657846269896,0.0585180224376089,5.8518022437608904e-05,0.111033633351326,-0.985530853271484,1.09656448662281
513020.559098352,289.0727846249938,0.0585194395014842,5.8519439501484204e-05,0.109983466565609,-0.985549986362457,1.09553345292806
513020.565698351,289.0793846240267,0.058520775597324,5.8520775597324e-05,0.108971491456031,-0.985779047012329,1.09475053846836
513020.573298348,289.08698462101165,0.0585223141415483,5.85223141415483e-05,0.107902228832244,-0.985569059848785,1.09347128868103
513020.580898335,289.0945846080431,0.0585238526659939,5.85238526659939e-05,0.106775686144828,-0.985588133335113,1.09236381947994
513020.587698327,289.10138460004237,0.0585252292582194,5.85252292582194e-05,0.105706430971622,-0.985569059848785,1.0912754908204
513020.595698328,289.1093846010044,0.0585268487489521,5.8526848748952103e-05,0.104598984122276,-0.985569059848785,1.09016804397106
513020.602698328,289.11638460098766,0.0585282658439543,5.85282658439543e-05,0.103548817336559,-0.985492706298828,1.08904152363538
513020.608698317,289.12238459003856,0.0585294804866446,5.85294804866446e-05,0.102536834776401,-0.985702693462371,1.08823952823877
513020.616498304,289.1301845770213,0.0585310594944027,5.85310594944027e-05,0.101486667990684,-0.985607266426086,1.08709393441677
513020.623298304,289.136984576995,0.0585324360625975,5.85324360625975e-05,0.100455597043037,-0.985626339912414,1.08608193695545
513020.627098304,289.1407845770009,0.0585332053135037,5.85332053135037e-05,0.0998445898294448,-0.985569059848785,1.08541364967823
513020.627298304,289.1409845770104,0.0585332457996507,5.85332457996507e-05,0.0998255014419555,-0.985759973526001,1.08558547496795
