time/s,reltime/s,C/mA.h,C/A.h,Ewe/V,Ece/V,Ewe-Ece/V
505288.517259162,0.0,0.0,0.0,0.780696392059326,-1.02752542495727,1.8082218170166
505288.517459162,0.00020000000949949026,2.02338182263904e-08,2.02338182263904e-11,0.769148111343383,-1.0255206823349,1.79466879367828
505288.517659162,0.0004000000189989805,4.0471527311537e-08,4.0471527311537e-11,0.761945664882659,-1.02331340312957,1.78525906801223
505288.517859161,0.0005999990389682353,6.07081767585542e-08,6.070817675855419e-11,0.759463489055633,-1.02155697345733,1.78102046251297
505288.518059161,0.0007999990484677255,8.09444718890719e-08,8.094447188907189e-11,0.75797414779663,-1.02107965946197,1.7790538072586
505288.518259161,0.0009999989997595549,1.01179705725775e-07,1.01179705725775e-10,0.756809413433075,-1.0208123922348,1.77762180566787
505288.51865916,0.0013999980292282999,1.41649464766184e-07,1.41649464766184e-10,0.755262792110443,-1.02008688449859,1.77534967660903
505288.519259159,0.001999997009988874,2.02366479569011e-07,2.02366479569011e-10,0.7539644241333,-1.01918959617614,1.77315402030944
505288.519859158,0.0025999960489571095,2.63079606824451e-07,2.63079606824451e-10,0.752895176410675,-1.01875042915344,1.77164560556411
505288.520859156,0.003599994000978768,3.64267796277999e-07,3.64267796277999e-10,0.751825869083404,-1.01796770095825,1.76979357004165
505288.521659155,0.004399993049446493,4.45217569669087e-07,4.45217569669087e-10,0.750813901424408,-1.01760494709014,1.76841884851455
505288.522859153,0.005599991010967642,5.66642410225338e-07,5.66642410225338e-10,0.749572813510894,-1.01705133914947,1.76662415266037
505288.524459153,0.007199991028755903,7.28539481759071e-07,7.285394817590709e-10,0.74838900566101,-1.01647853851318,1.76486754417419
505288.525859154,0.00859999202657491,8.70209806495242e-07,8.70209806495242e-10,0.747357904911041,-1.01634490489959,1.76370280981063
505288.527259155,0.009999993024393916,1.0118826015128e-06,1.0118826015128e-09,0.746326863765716,-1.01603949069976,1.76236635446548
505288.528859154,0.01159999199444428,1.17378886871867e-06,1.17378886871867e-09,0.745238482952117,-1.01571488380432,1.76095336675643
505288.530659154,0.013399992021732032,1.35593460996945e-06,1.35593460996945e-09,0.744131028652191,-1.01554310321807,1.75967413187027
505288.532259154,0.014999992039520293,1.5178285025888e-06,1.5178285025888001e-09,0.743119060993194,-1.01535212993621,1.75847119092941
505288.534059153,0.01679999101907015,1.69996964600351e-06,1.69996964600351e-09,0.742107093334198,-1.01502764225006,1.75713473558425
505288.535859153,0.0185999910463579,1.88210548957188e-06,1.88210548957188e-09,0.741075992584228,-1.01485574245452,1.75593173503875
505288.537859154,0.020599992014467716,2.08448045121298e-06,2.08448045121298e-09,0.740006744861602,-1.01449298858642,1.75449973344802
505288.540059153,0.02279999101301655,2.30708746612072e-06,2.30708746612072e-09,0.738746523857116,-1.01451218128204,1.75325870513916
505288.54205915,0.024799988023005426,2.50946349071131e-06,2.50946349071131e-09,0.737677276134491,-1.01434028148651,1.752017557621
505288.543859147,0.02659998502349481,2.69160640405284e-06,2.69160640405284e-09,0.736646234989166,-1.01418757438659,1.75083380937576
505288.545859144,0.028599982033483684,2.89398985273308e-06,2.8939898527330802e-09,0.735576927661895,-1.01407301425933,1.74964994192123
505288.547859141,0.030599979043472558,3.09637259609169e-06,3.09637259609169e-09,0.734469532966613,-1.01413023471832,1.74859976768493
505288.549859138,0.03259997599525377,3.29875816404819e-06,3.29875816404819e-09,0.733362078666687,-1.01392030715942,1.74728238582611
505288.552059134,0.0347999720252119,3.52137083974149e-06,3.52137083974149e-09,0.732311904430389,-1.01390123367309,1.74621313810348
505288.55425913,0.03699996799696237,3.7439842224121e-06,3.7439842224121e-09,0.731280803680419,-1.0137676000595,1.74504840373992
505288.556459131,0.039199969032779336,3.96660255226824e-06,3.96660255226824e-09,0.730249762535095,-1.01371026039123,1.74396002292633
505288.558659132,0.04139997001038864,4.18922547830475e-06,4.189225478304749e-09,0.729237794876098,-1.01365303993225,1.74289083480835
505288.560659131,0.04339996899943799,4.39160079591804e-06,4.39160079591804e-09,0.728225767612457,-1.01359570026397,1.74182146787643
505288.562659131,0.04539996903622523,4.59397115972307e-06,4.59397115972307e-09,0.72721379995346,-1.01344299316406,1.74065679311752
505288.564859131,0.0475999690243043,4.81659549805853e-06,4.8165954980585305e-09,0.726068198680877,-1.01346206665039,1.73953026533126
505288.56705913,0.049799968022853136,5.03921771215068e-06,5.0392177121506806e-09,0.725037097930908,-1.01348114013671,1.73851823806762
505288.569059132,0.05179997003870085,5.24160115917523e-06,5.241601159175231e-09,0.724025130271911,-1.01338577270507,1.73741090297699
505288.571259131,0.053999969037249684,5.46422195931275e-06,5.46422195931275e-09,0.722917675971984,-1.01342391967773,1.73634159564971
505288.573659127,0.05639996501849964,5.70707553128401e-06,5.707075531284011e-09,0.72179114818573,-1.01323294639587,1.7350240945816
505288.576259123,0.05899996100924909,5.97016433046923e-06,5.97016433046923e-09,0.720702767372131,-1.01311838626861,1.73382115364074
505288.578659119,0.06139995704870671,6.2130253199074e-06,6.2130253199074e-09,0.719595313072204,-1.0130420923233,1.7326374053955
505288.580859115,0.06359995302045718,6.4356369326512e-06,6.4356369326512e-09,0.718564271926879,-1.01308023929595,1.73164451122283
505288.583259111,0.06599994900170714,6.67849615878529e-06,6.67849615878529e-09,0.717514097690582,-1.01300382614135,1.73051792383194
505288.585659107,0.06839994504116476,6.92134865787294e-06,6.92134865787294e-09,0.716406643390655,-1.01306116580963,1.72946780920028
505288.587659108,0.07039994600927457,7.12372892763879e-06,7.12372892763879e-09,0.715394675731658,-1.01308023929595,1.72847491502761
505288.590059109,0.07279994699638337,7.36657576925224e-06,7.36657576925224e-09,0.714249014854431,-1.01306116580963,1.72731018066406
505288.592859108,0.07559994602343068,7.6499012162288e-06,7.6499012162288e-09,0.713122487068176,-1.01298475265502,1.7261072397232
505288.595659108,0.07839994604000822,7.93324115872383e-06,7.93324115872383e-09,0.712072312831878,-1.01285111904144,1.72492343187332
505288.598059107,0.08079994504805654,8.17608800530433e-06,8.17608800530433e-09,0.710907578468322,-1.01279389858245,1.72370147705078
505288.600859109,0.08359994704369456,8.45940320193767e-06,8.45940320193767e-09,0.709895610809326,-1.01269841194152,1.72259402275085
505288.603059107,0.0857999449945055,8.68202011618349e-06,8.68202011618349e-09,0.708807289600372,-1.01275563240051,1.72156292200088
505288.605259103,0.08799994102446362,8.90464763177765e-06,8.90464763177765e-09,0.707757115364074,-1.01285111904144,1.72060823440551
505288.607859099,0.09059993701521307,9.16773465938038e-06,9.16773465938038e-09,0.706592381000518,-1.01279389858245,1.71938627958297
505288.610659094,0.09339993202593178,9.45106257829401e-06,9.451062578294011e-09,0.705523133277893,-1.01277482509613,1.71829795837402
505288.61285909,0.09559992799768224,9.67368232044908e-06,9.67368232044908e-09,0.704511106014251,-1.01256477832794,1.71707588434219
505288.615659086,0.09839992399793118,9.95701307058334e-06,9.95701307058334e-09,0.703480064868927,-1.01258385181427,1.71606391668319
505288.618459084,0.10119992203544825,1.02403519501288e-05,1.02403519501288e-08,0.702448964118957,-1.01245021820068,1.71489918231964
505288.621059086,0.10379992402158678,1.05034375637769e-05,1.05034375637769e-08,0.701341569423675,-1.01246929168701,1.71381086111068
505288.623859085,0.10659992304863408,1.07867626498142e-05,1.07867626498142e-08,0.700234115123748,-1.01250743865966,1.71274155378341
505288.626459085,0.10919992299750447,1.10498433129655e-05,1.1049843312965501e-08,0.699164807796478,-1.01250743865966,1.71167224645614
505288.628859084,0.1115999220055528,1.12926979379521e-05,1.1292697937952099e-08,0.698152840137481,-1.01262199878692,1.7107748389244
505288.631859086,0.1145999240106903,1.15962596784035e-05,1.1596259678403499e-08,0.696988105773925,-1.01252663135528,1.70951473712921
505288.635059082,0.11779992002993822,1.19200700869162e-05,1.1920070086916199e-08,0.695880651473999,-1.01243114471435,1.70831179618835
505288.638059077,0.12079991505015641,1.22236452665593e-05,1.22236452665593e-08,0.694792330265045,-1.01245021820068,1.70724254846572
505288.640859073,0.12359991105040535,1.25069707085688e-05,1.25069707085688e-08,0.693780362606048,-1.01220202445983,1.70598238706588
505288.643459068,0.1261999059934169,1.27700612793366e-05,1.27700612793366e-08,0.692749261856079,-1.01237380504608,1.70512306690216
505288.646259063,0.1289999010041356,1.30533867279688e-05,1.30533867279688e-08,0.691603660583496,-1.01227843761444,1.70388209819793
505288.649259061,0.13199989905115217,1.33569565945201e-05,1.33569565945201e-08,0.690477073192596,-1.01237380504608,1.70285087823867
505288.652459062,0.13519990001805127,1.36807694733142e-05,1.36807694733142e-08,0.689465105533599,-1.01229751110076,1.70176261663436
505288.655259062,0.1379999000346288,1.39641002234485e-05,1.39641002234485e-08,0.688434064388275,-1.01224017143249,1.70067423582077
505288.658459061,0.14119989902246743,1.42879081467787e-05,1.42879081467787e-08,0.687422096729278,-1.01208746433258,1.69950956106185
505288.661259061,0.14399989903904498,1.45712286416027e-05,1.45712286416027e-08,0.686333715915679,-1.01208746433258,1.69842118024826
505288.664459062,0.14719990000594407,1.48950355152289e-05,1.48950355152289e-08,0.68530261516571,-1.01214480400085,1.69744741916656
505288.667259058,0.149999896006193,1.51783613165219e-05,1.51783613165219e-08,0.684271574020385,-1.01216387748718,1.69643545150756
505288.670259052,0.15299989003688097,1.54819329546557e-05,1.54819329546557e-08,0.683240473270416,-1.01222109794616,1.69546157121658
505288.673859046,0.15659988403785974,1.58462170130676e-05,1.5846217013067602e-08,0.682152152061462,-1.01208746433258,1.69423961639404
505288.677259041,0.15999987901886925,1.61902676042583e-05,1.61902676042583e-08,0.681101977825164,-1.01204931735992,1.69315129518508
505288.680259037,0.16299987502861768,1.64938392457034e-05,1.64938392457034e-08,0.680051803588867,-1.01176297664642,1.69181478023529
505288.683659039,0.1663998769945465,1.68378824144601e-05,1.68378824144601e-08,0.67903983592987,-1.01189661026001,1.69093644618988
505288.686859038,0.1695998760405928,1.71616949488719e-05,1.71616949488719e-08,0.677913308143615,-1.01191568374633,1.68982899188995
505288.690059037,0.17279987502843142,1.74855124238464e-05,1.74855124238464e-08,0.676863133907318,-1.01201117038726,1.68887430429458
505288.693859038,0.17659987602382898,1.78700433837043e-05,1.7870043383704298e-08,0.675851166248321,-1.01206839084625,1.68791955709457
505288.697659036,0.18039987405063584,1.82545619656642e-05,1.82545619656642e-08,0.674820065498352,-1.01185834407806,1.68667840957641
505288.70125903,0.18399986799340695,1.86188396579689e-05,1.86188396579689e-08,0.673769891262054,-1.01185834407806,1.68562823534011
505288.704459024,0.1871998620335944,1.89426497088538e-05,1.89426497088538e-08,0.672738850116729,-1.0117437839508,1.68448263406753
505288.708059018,0.19079985603457317,1.93069341199265e-05,1.93069341199265e-08,0.67170774936676,-1.01189661026001,1.68360435962677
505288.711459014,0.19419985200511292,1.9650972334875e-05,1.9650972334875e-08,0.670676708221435,-1.01180112361908,1.68247783184051
505288.716059015,0.19879985303850845,2.01164466987053e-05,2.0116446698705298e-08,0.669645607471466,-1.01180112361908,1.68144673109054
505288.719859015,0.20259985304437578,2.05009511444303e-05,2.05009511444303e-08,0.668633639812469,-1.01162922382354,1.68026286363601
505288.723859014,0.2065998520120047,2.09057215833001e-05,2.09057215833001e-08,0.667507112026214,-1.01157200336456,1.67907911539077
505288.727659015,0.21039985300740227,2.12902461787065e-05,2.12902461787065e-08,0.666495144367218,-1.01183927059173,1.67833441495895
505288.732059007,0.21479984500911087,2.17354789541827e-05,2.1735478954182697e-08,0.665406763553619,-1.01176297664642,1.67716974020004
505288.737058999,0.21979983703931794,2.22414354433616e-05,2.2241435443361602e-08,0.664299309253692,-1.01164841651916,1.67594772577285
505288.741458991,0.22419982904102653,2.26866593741708e-05,2.26866593741708e-08,0.663287341594696,-1.01159107685089,1.67487841844558
505288.745258992,0.2279998300364241,2.30711687654256e-05,2.30711687654256e-08,0.662275373935699,-1.01159107685089,1.67386645078659
505288.750058992,0.23279983003158122,2.35568780120876e-05,2.3556878012087598e-08,0.661167919635772,-1.01149559020996,1.67266350984573
505288.755258991,0.23799982899799943,2.40830630312363e-05,2.40830630312363e-08,0.660117745399475,-1.01149559020996,1.67161333560943
505288.760458989,0.24319982703309506,2.46092469890912e-05,2.4609246989091203e-08,0.65908670425415,-1.01132380962371,1.67041051387786
505288.76525898,0.24799981800606474,2.50949488133192e-05,2.50949488133192e-08,0.65796011686325,-1.01151478290557,1.66947489976882
505288.770058972,0.2527998100267723,2.55806679593192e-05,2.55806679593192e-08,0.656910002231597,-1.01151478290557,1.66842478513717
505288.776058969,0.25879980699392036,2.61878193716208e-05,2.61878193716208e-08,0.655840694904327,-1.0114574432373,1.66729813814163
505288.782058968,0.2647998059983365,2.67949622935719e-05,2.67949622935719e-08,0.65482872724533,-1.01126658916473,1.66609531641006
505288.786858968,0.26959980599349365,2.72806754344039e-05,2.7280675434403898e-08,0.653797686100006,-1.0113810300827,1.6651787161827
505288.792458964,0.2751998020103201,2.78473252620962e-05,2.78473252620962e-08,0.652785658836364,-1.0113810300827,1.66416668891906
505288.799258953,0.2819997910410166,2.85354126559363e-05,2.8535412655936302e-08,0.651716411113739,-1.01113283634185,1.66284924745559
505288.805058944,0.28779978200327605,2.91223235262765e-05,2.9122323526276497e-08,0.650589883327484,-1.0110946893692,1.66168457269668
505288.811458945,0.29419978300575167,2.97699326707257e-05,2.9769932670725702e-08,0.649558782577514,-1.01130473613739,1.6608635187149
505288.819258946,0.30199978401651606,3.05592178023523e-05,3.05592178023523e-08,0.648489534854888,-1.01105654239654,1.65954607725143
505288.825458938,0.3081997760455124,3.1186594898502e-05,3.1186594898501994e-08,0.647477567195892,-1.01113283634185,1.65861040353775
505288.832058927,0.3147997650085017,3.18544488218095e-05,3.18544488218095e-08,0.646408319473266,-1.01120924949646,1.65761756896972
505288.840458922,0.32319975999416783,3.27044371730751e-05,3.27044371730751e-08,0.645377218723297,-1.01094198226928,1.65631920099258
505288.847258921,0.32999975903658196,3.33925447182523e-05,3.3392544718252295e-08,0.644346177577972,-1.01111376285553,1.6554599404335
505288.855258917,0.337999755050987,3.42020477586322e-05,3.4202047758632204e-08,0.643315076828002,-1.01107561588287,1.65439069271087
505288.862658904,0.34539974201470613,3.49508624176184e-05,3.49508624176184e-08,0.642303109169006,-1.01088464260101,1.65318775177002
505288.870858899,0.35359973704908043,3.57806165930297e-05,3.57806165930297e-08,0.641252934932708,-1.01098012924194,1.65223306417465
505288.880858899,0.363599737000186,3.67925083835919e-05,3.67925083835919e-08,0.640240967273712,-1.01084649562835,1.65108746290206
505288.88885889,0.3715997280087322,3.76020312243037e-05,3.7602031224303696e-08,0.639209926128387,-1.01092290878295,1.65013283491134
505288.900458875,0.38319971301825717,3.87758285668161e-05,3.87758285668161e-08,0.638121545314788,-1.01069378852844,1.64881533384323
505288.908658875,0.39139971300028265,3.96055778033203e-05,3.9605577803320295e-08,0.637014091014862,-1.01086556911468,1.64787966012954
505288.921058865,0.40379970299545676,4.08603160911136e-05,4.0860316091113605e-08,0.636002123355865,-1.01075100898742,1.64675313234329
505288.930658851,0.4133996890159324,4.18317225674788e-05,4.18317225674788e-08,0.634971022605896,-1.0108083486557,1.64577937126159
505288.943258852,0.4259996900218539,4.31067360341549e-05,4.31067360341549e-08,0.633882701396942,-1.01067471504211,1.64455741643905
505288.956258835,0.4389996730023995,4.44221856792767e-05,4.44221856792767e-08,0.632813453674316,-1.01073193550109,1.64354538917541
505288.966458828,0.4491996660362929,4.54543218861023e-05,4.54543218861023e-08,0.631801486015319,-1.01061737537384,1.64241886138916
505288.98245882,0.46519965800689533,4.70733714451392e-05,4.70733714451392e-08,0.630789458751678,-1.01056015491485,1.64134961366653
505288.992858804,0.4755996420281008,4.81257425496975e-05,4.8125742549697503e-08,0.629758417606353,-1.01054108142852,1.64029949903488
505289.007258806,0.4899996440508403,4.95828900982936e-05,4.95828900982936e-08,0.628746449947357,-1.01063656806945,1.63938301801681
505289.023458781,0.5061996190343052,5.12221250335375e-05,5.12221250335375e-08,0.627734422683715,-1.01035010814666,1.63808453083038
505289.039458783,0.5221996210166253,5.28412039428949e-05,5.28412039428949e-08,0.626722455024719,-1.01025462150573,1.63697707653045
505289.052058761,0.5347995990305208,5.41162241134378e-05,5.41162241134378e-08,0.625710487365722,-1.01038837432861,1.63609886169433
505289.06965876,0.5523995980038308,5.58971636792024e-05,5.58971636792024e-08,0.624679446220397,-1.01038837432861,1.63506782054901
505289.088258735,0.5709995730430819,5.77793048520883e-05,5.77793048520883e-08,0.623667418956756,-1.01035010814666,1.63401752710342
505289.10585873,0.5885995680000633,5.95602628058857e-05,5.9560262805885704e-08,0.62265545129776,-1.01017832756042,1.63283377885818
505289.126258712,0.6089995500515215,6.16245670517285e-05,6.162456705172849e-08,0.621643483638763,-1.01014018058776,1.63178366422653
505289.14705869,0.6297995280474424,6.37293067657285e-05,6.37293067657285e-08,0.620631515979766,-1.01017832756042,1.63080984354019
505289.167258685,0.6499995230115019,6.57733839071459e-05,6.57733839071459e-08,0.61961954832077,-1.01012098789215,1.62974053621292
505289.189658665,0.6723995030042715,6.8040033052365e-05,6.8040033052365e-08,0.618531167507171,-1.01004469394683,1.62857586145401
505289.216258642,0.6989994799951091,7.07316762208938e-05,7.07316762208938e-08,0.617519199848175,-1.00991106033325,1.62743026018142
505289.243058618,0.725799456005916,7.34435514377223e-05,7.34435514377223e-08,0.616507232189178,-1.00983464717865,1.62634187936782
505289.266458606,0.7491994440206327,7.58114078773392e-05,7.58114078773392e-08,0.615495264530181,-1.0098727941513,1.62536805868148
505289.293658589,0.7763994270353578,7.85638051943646e-05,7.85638051943646e-08,0.614464163780212,-1.00985372066497,1.62431788444519
505289.324058568,0.8067994060111232,8.16399976925717e-05,8.16399976925717e-08,0.613394916057586,-1.00956737995147,1.62296229600906
505289.35085855,0.8335993880173191,8.4351918866237e-05,8.435191886623699e-08,0.61238294839859,-1.0096628665924,1.62204581499099
505289.384458525,0.8671993630123325,8.77518510735697e-05,8.77518510735697e-08,0.611370980739593,-1.00962460041046,1.62099558115005
505289.4164585,0.8991993380477652,9.09899533689022e-05,9.09899533689022e-08,0.610358953475952,-1.00954830646514,1.6199072599411
505289.449458474,0.9321993120247498,9.43292449265718e-05,9.432924492657181e-08,0.609346985816955,-1.00952923297882,1.61887621879577
505289.488258438,0.9709992760326713,9.82554689066277e-05,9.82554689066277e-08,0.60831594467163,-1.00943374633789,1.61774969100952
505289.52805841,1.0107992480043322,0.000102282812507616,1.02282812507616e-07,0.607284843921661,-1.00931918621063,1.61660403013229
505289.569058387,1.0517992250388488,0.000106431649873654,1.06431649873654e-07,0.606272876262664,-1.00941467285156,1.61568754911422
505289.608858352,1.0915991900255904,0.000110458998756276,1.10458998756276e-07,0.605260908603668,-1.00931918621063,1.6145800948143
505289.662458317,1.1451991550275125,0.000115882834411329,1.1588283441132899e-07,0.604229807853698,-1.0089373588562,1.6131671667099
505289.706258276,1.1889991140342318,0.000120314978478683,1.20314978478683e-07,0.603217840194702,-1.00905191898345,1.61226975917816
505289.750458247,1.2331990850507282,0.000124787598316868,1.24787598316868e-07,0.602167665958404,-1.00897550582885,1.61114317178726
505289.8074582,1.2901990380487405,0.000130555414199829,1.30555414199829e-07,0.601155698299408,-1.00889921188354,1.61005491018295
505289.865458155,1.348198993015103,0.000136424470937914,1.3642447093791399e-07,0.600143730640411,-1.00884187221527,1.60898560285568
505289.924058115,1.406798953015823,0.000142354239049885,1.42354239049885e-07,0.599055349826812,-1.00863182544708,1.60768717527389
505289.987658066,1.470398903999012,0.000148789982012576,1.48789982012576e-07,0.598043382167816,-1.00863182544708,1.60667520761489
505290.049458021,1.5321988590294495,0.000155043590888381,1.55043590888381e-07,0.597031414508819,-1.00861275196075,1.60564416646957
505290.112457973,1.595198811031878,0.000161418623204032,1.61418623204032e-07,0.596019446849823,-1.00853645801544,1.60455590486526
505290.18885792,1.6715987580246292,0.000169149566112293,1.69149566112293e-07,0.595007479190826,-1.00844097137451,1.60344845056533
505290.265057863,1.74779870104976,0.00017686023632023,1.7686023632023e-07,0.593976378440856,-1.00832641124725,1.60230278968811
505290.345857804,1.8285986420232803,0.000185036369926399,1.8503636992639899e-07,0.59296441078186,-1.00838363170623,1.60134804248809
505290.428857734,1.9115985720418394,0.000193435158938169,1.9343515893816898e-07,0.591914236545562,-1.00817370414733,1.6000879406929
505290.51325768,1.9959985180175863,0.000201975638435946,2.01975638435946e-07,0.590902268886566,-1.00813543796539,1.59903770685195
505290.609257606,2.0919984439969994,0.000211689882064859,2.11689882064859e-07,0.589852094650268,-1.00794458389282,1.59779667854309
505290.708457527,2.19119836500613,0.000221727925853596,2.21727925853596e-07,0.588821053504943,-1.00796365737915,1.59678471088409
505290.810057455,2.292798292997759,0.000232008880851997,2.32008880851997e-07,0.587789952754974,-1.00784909725189,1.59563905000686
505290.925657367,2.408398205006961,0.000243706548934181,2.4370654893418097e-07,0.586777985095977,-1.00773453712463,1.59451252222061
505291.030457292,2.5131981300073676,0.000254311290615134,2.5431129061513404e-07,0.585708737373352,-1.00767731666564,1.593386054039
505291.161657199,2.6443980369949713,0.000267587508100602,2.6758750810060204e-07,0.58469671010971,-1.00733363628387,1.59203034639358
505291.287857106,2.770597944036126,0.000280357782554295,2.80357782554295e-07,0.583627462387085,-1.00744819641113,1.59107565879821
505291.42825699,2.910997828003019,0.000294564999691314,2.94564999691314e-07,0.582615494728088,-1.00741004943847,1.59002554416656
505291.568856896,3.051597734040115,0.000308792419925332,3.0879241992533197e-07,0.581603527069091,-1.00721907615661,1.5888226032257
505291.710056779,3.192797616997268,0.000323080648013287,3.23080648013287e-07,0.580515146255493,-1.00718092918396,1.58769607543945
505291.887656657,3.370397495047655,0.000341052221414115,3.41052221414115e-07,0.579407691955566,-1.0069899559021,1.58639764785766
505292.052256526,3.534997364040464,0.000357708298469583,3.57708298469583e-07,0.578357577323913,-1.00681817531585,1.58517575263977
505292.246656385,3.729397223039996,0.00037737979521354,3.7737979521354e-07,0.577345550060272,-1.00656998157501,1.58391553163528
505292.430456243,3.9131970810121857,0.000395978693405787,3.95978693405787e-07,0.576257228851318,-1.00662720203399,1.58288443088531
505292.631456105,4.114196943002753,0.000416317965946263,4.16317965946263e-07,0.575245261192321,-1.00655090808868,1.581796169281
505292.831055948,4.313796786009334,0.000436515650807155,4.3651565080715505e-07,0.574214160442352,-1.00639820098877,1.58061236143112
505293.067855778,4.550596615998074,0.000460477661954032,4.60477661954032e-07,0.573125839233398,-1.00635993480682,1.57948577404022
505293.309855592,4.792596429993864,0.000484965919274422,4.84965919274422e-07,0.572056531906127,-1.0061308145523,1.57818734645843
505293.569855407,5.052596245019231,0.000511275724116298,5.112757241162981e-07,0.571025490760803,-1.00618815422058,1.57721364498138
505293.814655219,5.29739605699433,0.000536047263037827,5.36047263037827e-07,0.570013523101806,-1.00588262081146,1.57589614391326
505294.089055011,5.571795849013142,0.000563814041207234,5.638140412072339e-07,0.56900155544281,-1.00576817989349,1.5747697353363
505294.369254801,5.851995639037341,0.000592167805087235,5.921678050872351e-07,0.567989528179168,-1.00567269325256,1.57366222143173
505294.653454592,6.136195430008229,0.000620926533869571,6.20926533869571e-07,0.566939353942871,-1.00551998615264,1.57245934009552
505294.976054359,6.458795197017025,0.000653571036012636,6.535710360126361e-07,0.565927386283874,-1.00529086589813,1.571218252182
505295.312854102,6.795594940020237,0.000687652386097444,6.87652386097444e-07,0.564915418624877,-1.0051953792572,1.57011079788208
505295.671453835,7.154194672999438,0.000723939915067619,7.23939915067619e-07,0.563827097415924,-1.00517630577087,1.56900340318679
505296.068853544,7.551594382035546,0.000764153546412786,7.641535464127859e-07,0.562795996665954,-1.00508081912994,1.56787681579589
505296.452053254,7.934794092027005,0.000802930174219939,8.02930174219939e-07,0.561784029006958,-1.00500440597534,1.5667884349823
505296.852452961,8.335193798993714,0.000843447141756614,8.43447141756614e-07,0.560772061347961,-1.00473713874816,1.56550920009613
505297.295052627,8.777793465007562,0.00088823417429626,8.8823417429626e-07,0.559721887111663,-1.00460350513458,1.56432539224624
505297.753452285,9.23619312304072,0.000934619955355922,9.34619955355922e-07,0.558690786361694,-1.00445079803466,1.56314158439636
505298.255251913,9.73799275100464,0.00098539738918013,9.853973891801301e-07,0.557678818702697,-1.00431716442108,1.56199598312377
505298.732851555,10.21559239301132,0.00103372618366777,1.03372618366777e-06,0.556666851043701,-1.00424075126647,1.56090760231018
505299.272451145,10.75519198301481,0.00108832861406604,1.08832861406604e-06,0.555616676807403,-1.00395441055297,1.55957108736038
505299.830050734,11.31279157201061,0.00114475280661549,1.14475280661549e-06,0.554604709148407,-1.00385892391204,1.55846363306045
505300.431450283,11.91419112100266,0.00120560900629394,1.2056090062939401e-06,0.553573608398437,-1.0036871433258,1.55726075172424
505301.073049815,12.555790653044824,0.00127053337538242,1.27053337538242e-06,0.55256164073944,-1.00357258319854,1.55613422393798
505301.713849329,13.196590167004615,0.0013353767651038,1.3353767651038001e-06,0.551530599594116,-1.00336253643035,1.55489313602447
505302.389248831,13.871989669045433,0.0014037212620957,1.4037212620957002e-06,0.550499498844146,-1.00315260887146,1.5536521077156
505303.111848289,14.594589126994833,0.00147684192267225,1.47684192267225e-06,0.54948753118515,-1.00309526920318,1.55258280038833
505303.849847746,15.33258858404588,0.00155152086167037,1.55152086167037e-06,0.548475563526153,-1.00286614894866,1.55134171247482
505304.691047116,16.17378795403056,0.00163664274840884,1.63664274840884e-06,0.547444462776184,-1.00277078151702,1.55021524429321
505305.510246509,16.992987347010057,0.00171953833601044,1.71953833601044e-06,0.546413421630859,-1.00257980823516,1.54899322986602
505306.409645836,17.892386674007867,0.00181054933596485,1.81054933596485e-06,0.545401453971862,-1.00240802764892,1.54780948162078
505307.310645161,18.793385999044403,0.00190172212089929,1.90172212089929e-06,0.544389426708221,-1.00235068798065,1.54674011468887
505308.310244416,19.792985254025552,0.00200287260776592,2.0028726077659204e-06,0.543377459049224,-1.00214064121246,1.54551810026168
505309.311843671,20.79458450904349,0.00210422553808656,2.10422553808656e-06,0.542365491390228,-1.00202620029449,1.54439169168472
505310.348242902,21.830983740044758,0.0022090996108171,2.2090996108171e-06,0.541353523731231,-1.00170159339904,1.54305511713028
505311.470242065,22.952982903050724,0.00232263526797294,2.32263526797294e-06,0.540322422981262,-1.00164437294006,1.54196679592132
505312.651241181,24.133982019033283,0.00244214140840702,2.4421414084070202e-06,0.539272308349609,-1.00147247314453,1.54074478149414
505313.929440224,25.412181062041782,0.00257148306283189,2.57148306283189e-06,0.538260281085968,-1.00122427940368,1.53948456048965
505315.249439248,26.73218008602271,0.00270505467371642,2.70505467371642e-06,0.537229239940643,-1.00120520591735,1.538434445858
505316.590238247,28.072979085030966,0.00284073134001592,2.84073134001592e-06,0.536217272281646,-1.00093793869018,1.53715521097183
505317.991037199,29.473778037005104,0.00298247946128911,2.98247946128911e-06,0.535205245018005,-1.00082337856292,1.53602862358093
505319.49223608,30.97497691801982,0.00313438648421234,3.13438648421234e-06,0.534135997295379,-1.00061333179473,1.53474932909011
505321.070834917,32.553575755038764,0.00329412632431752,3.29412632431752e-06,0.533104956150054,-1.00044155120849,1.53354650735855
505322.691833705,34.17457454302348,0.00345815532615615,3.45815532615615e-06,0.532092988491058,-1.00028884410858,1.53238183259964
505324.470432379,35.95317321701441,0.00363813105519281,3.63813105519281e-06,0.531080961227417,-1.00013601779937,1.53121697902679
505326.171431111,37.654171949019656,0.00381025557215843,3.81025557215843e-06,0.53006899356842,-0.999964237213134,1.53003323078155
505328.149629631,39.63237046904396,0.00401042949672208,4.01042949672208e-06,0.529057025909423,-0.999792397022247,1.52884942293167
505329.930428303,41.41316914104391,0.0041906280241741,4.1906280241741e-06,0.528045058250427,-0.99965876340866,1.52770382165908
505332.051826724,43.53456756204832,0.00440529144155151,4.4052914415515105e-06,0.52703309059143,-0.999486923217773,1.5265200138092
505334.070625232,45.55336607003119,0.00460957346382406,4.6095734638240604e-06,0.526021122932434,-0.999372363090515,1.52539348602294
505336.335223531,47.817964369023684,0.0048387277256896,4.8387277256896e-06,0.525009095668792,-0.999200522899627,1.52420961856842
505338.594421855,50.07716269302182,0.00506733644912474,5.06733644912474e-06,0.523997128009796,-0.999009609222412,1.5230067372322
505341.073820011,52.556560849014204,0.00531822905214296,5.31822905214296e-06,0.522985160350799,-0.99878054857254,1.52176570892334
505343.552818154,55.03555899200728,0.00556908119390077,5.56908119390077e-06,0.521973192691803,-0.99868506193161,1.52065825462341
505346.172016209,57.654757047013845,0.00583411825823783,5.83411825823783e-06,0.520961225032806,-0.998436868190765,1.51939809322357
505348.515614463,59.99835530103883,0.00607126649678746,6.07126649678746e-06,0.519930124282836,-0.99834144115448,1.51827156543731
505351.816212005,63.29895284300437,0.00640525370845364,6.40525370845364e-06,0.518879950046539,-0.998226881027221,1.51710683107376
505354.757409819,66.24015065701678,0.00670287419912384,6.70287419912384e-06,0.517848908901214,-0.998093247413635,1.51594215631485
505357.937007443,69.41974828101229,0.00702461854501234,7.02461854501234e-06,0.516836941242218,-0.997864127159118,1.51470106840133
505361.11500507,72.5977459080168,0.00734620042129192,7.34620042129192e-06,0.515805840492248,-0.997730493545532,1.51353633403778
505364.514402544,75.99714338203194,0.00769018704118662,7.69018704118662e-06,0.514774799346923,-0.997635006904602,1.51240980625152
505367.97679997,79.4595408080495,0.00804054852233992,8.04054852233992e-06,0.513762772083282,-0.997482299804687,1.51124507188797
505371.739597154,83.22233799204696,0.00842130672966606,8.42130672966606e-06,0.512731730937957,-0.997272312641143,1.5100040435791
505375.438794404,86.92153524199966,0.00879563099155492,8.79563099155492e-06,0.511719763278961,-0.997157752513885,1.50887751579284
505379.465791401,90.94853223901009,0.00920312564552161,9.20312564552161e-06,0.510707736015319,-0.996928632259368,1.50763636827468
505383.382588492,94.86532933003036,0.00959946907762355,9.59946907762355e-06,0.509695768356323,-0.996756792068481,1.5064525604248
505387.581785352,99.06452619004995,0.01002438742532,1.0024387425320001e-05,0.508664727210998,-0.996737718582153,1.50540244579315
505391.919582126,103.40232296404429,0.0104633296340455,1.0463329634045501e-05,0.507576346397399,-0.996565878391265,1.50414222478866
505396.719178549,108.20191938703647,0.0109490020979146,1.09490020979146e-05,0.506564378738403,-0.996508598327636,1.50307297706604
505401.35997509,112.84271592803998,0.0114186051156587,1.14186051156587e-05,0.505552411079406,-0.996260404586792,1.50181281566619
505406.19837149,117.68111232802039,0.0119082047590613,1.19082047590613e-05,0.504483163356781,-0.996203124523162,1.50068628787994
505411.334567653,122.81730849103769,0.0124279386200954,1.24279386200954e-05,0.503471195697784,-0.995954930782318,1.4994261264801
505416.466963834,127.9497046720353,0.0129472871864239,1.2947287186423901e-05,0.502459168434143,-0.99593585729599,1.49839502573013
505421.529760061,133.01250089902896,0.0134595919281062,1.3459591928106199e-05,0.501447200775146,-0.995725870132446,1.49717307090759
505427.026955965,138.5096968029975,0.0140158539015468,1.40158539015468e-05,0.500416159629821,-0.995649516582489,1.49606567621231
505432.563751843,144.04649268102366,0.0145761237897028,1.45761237897028e-05,0.49940413236618,-0.995554029941558,1.49495816230773
505438.142747683,149.62548852100736,0.0151406636349823,1.51406636349823e-05,0.498373061418533,-0.995305836200714,1.49367889761924
505444.358143055,155.84088389301905,0.0157696042371458,1.57696042371458e-05,0.497341990470886,-0.995229482650756,1.49257147312164
505450.370738572,161.85347940999782,0.0163780253610809,1.63780253610809e-05,0.496330022811889,-0.99500036239624,1.49133038520813
505456.245734195,167.72847503301455,0.0169725211914926,1.69725211914926e-05,0.495298951864242,-0.994962215423584,1.49026116728782
505462.521929515,174.00467035302427,0.0176076185896413,1.7607618589641298e-05,0.494286984205246,-0.994866728782653,1.4891537129879
505469.058124649,180.54086548701162,0.0182690242856095,1.82690242856095e-05,0.493255913257598,-0.994618535041809,1.4878744482994
505475.576319797,187.05906063504517,0.0189286080445183,1.89286080445183e-05,0.492224842309951,-0.994599461555481,1.48682430386543
505482.313114776,193.79585561400745,0.0196103117776529,1.96103117776529e-05,0.491174668073654,-0.994274914264679,1.48544958233833
505489.205709638,200.68845047603827,0.0203077817901141,2.03077817901141e-05,0.490162670612335,-0.994255781173706,1.48441845178604
505495.739704767,207.22244560503168,0.0209689610103087,2.0968961010308698e-05,0.489150702953338,-0.994045794010162,1.4831964969635
505502.615299643,214.0980404810398,0.0216647057035565,2.16647057035565e-05,0.488138735294342,-0.993893027305603,1.48203176259994
505509.615494428,221.09823526605032,0.0223730611217121,2.23730611217121e-05,0.487088561058044,-0.993893027305603,1.48098158836364
505516.66948918,228.15223001805134,0.0230868577349268,2.3086857734926798e-05,0.486076593399047,-0.993702113628387,1.47977870702743
505523.742083901,235.224824739038,0.0238025397460841,2.3802539746084097e-05,0.485064595937728,-0.993587613105773,1.4786522090435
505530.832878621,242.3156194590265,0.0245200634035368,2.45200634035368e-05,0.483976244926452,-0.993453919887542,1.47743016481399
505538.510072911,249.99281374900602,0.0252969254498018,2.52969254498018e-05,0.482945173978805,-0.99322485923767,1.47617003321647
505545.802467467,257.28520830499474,0.0260348468814558,2.60348468814558e-05,0.481914103031158,-0.993167579174041,1.4750816822052
505552.993662109,264.4764029470389,0.0267625293169534,2.6762529316953403e-05,0.480883032083511,-0.993148446083068,1.47403147816658
505560.308856662,271.791597500036,0.0275027564860218,2.75027564860218e-05,0.479851961135864,-0.992938458919525,1.47279042005538
505567.10125161,278.5839924479951,0.0281900829595459,2.81900829595459e-05,0.478839993476867,-0.992995738983154,1.47183573246002
505574.852245835,286.33498667302774,0.028974407781783,2.8974407781783e-05,0.477827996015548,-0.992766618728637,1.47059461474418
505581.924040557,293.40678139502415,0.0296900037556456,2.96900037556456e-05,0.476816028356552,-0.992747545242309,1.46956357359886
505588.936835334,300.4195761720184,0.030399630632523,3.0399630632523e-05,0.475804060697555,-0.992480278015136,1.46828433871269
505596.048030035,307.5307708730106,0.0311192134131723,3.1119213413172305e-05,0.474792063236236,-0.992461144924163,1.4672532081604
505603.217024694,314.6997655320447,0.0318446435283703,3.18446435283703e-05,0.47378009557724,-0.992270231246948,1.46605032682418
505610.33221939,321.8149602280464,0.0325646302652127,3.25646302652127e-05,0.472768127918243,-0.99234664440155,1.46511477231979
505617.027414403,328.5101552410051,0.0332421167650338,3.3242116765033804e-05,0.471737056970596,-0.992060244083404,1.463797301054
505624.420208899,335.90294973703567,0.0339901932718952,3.3990193271895204e-05,0.470725059509277,-0.991926610469818,1.46265166997909
505631.11160391,342.59434474800946,0.0346672941946387,3.46672941946387e-05,0.46971309185028,-0.991926610469818,1.46163970232009
505637.385599242,348.8683400800219,0.0353021594002395,3.5302159400239503e-05,0.468701094388961,-0.991869330406189,1.46057042479515
505644.759393749,356.24213458702434,0.0360483172075864,3.60483172075864e-05,0.467689126729965,-0.991831123828887,1.45952025055885
505651.336188837,362.8189296750352,0.0367138272960318,3.67138272960318e-05,0.466677159070968,-0.991602063179016,1.45827922224998
505657.471584274,368.95432511204854,0.03733467113124,3.733467113124e-05,0.465665161609649,-0.991602063179016,1.45726722478866
505664.308579176,375.7913200140465,0.0380265116772353,3.80265116772353e-05,0.464653193950653,-0.991602063179016,1.45625525712966
505670.765774367,382.24851520505035,0.0386799218493998,3.86799218493998e-05,0.463622123003006,-0.991334736347198,1.4549568593502
505676.896369794,388.3791106319986,0.0393002835218277,3.93002835218277e-05,0.462571948766708,-0.991277515888214,1.45384946465492
505683.399764949,394.88250578701263,0.0399583694650696,3.99583694650696e-05,0.461540877819061,-0.991296589374542,1.4528374671936
505689.96976006,401.45250089804176,0.0406231948782288,4.0623194878228796e-05,0.460528910160064,-0.991086542606353,1.45161545276641
505696.145755453,407.62849629099946,0.0412481491437637,4.12481491437637e-05,0.459516942501068,-0.991029322147369,1.45054626464843
505701.726551307,413.2092921450385,0.0418128741673827,4.18128741673827e-05,0.458504945039749,-0.991010189056396,1.44951513409614
505707.502146998,418.98488783603534,0.0423973097580158,4.2397309758015794e-05,0.457492977380752,-0.99097204208374,1.44846501946449
505712.62154318,424.1042840180453,0.0429153460546284,4.29153460546284e-05,0.456480979919433,-0.99087655544281,1.44735753536224
505718.755338616,430.23807945405133,0.0435360283383064,4.3536028338306404e-05,0.455449908971786,-0.99087655544281,1.44632646441459
505723.992934703,435.47567554103443,0.044066024881593,4.4066024881593e-05,0.454437941312789,-0.990685641765594,1.44512358307838
505729.491530606,440.9742714440217,0.0446224325351681,4.4622432535168104e-05,0.453387767076492,-0.990628361701965,1.44401612877845
505734.667526761,446.1502675990341,0.0451461977100206,4.5146197710020594e-05,0.452375799417495,-0.990609288215637,1.44298508763313
505739.965122807,451.4478636450367,0.0456822658283859,4.56822658283859e-05,0.451363831758499,-0.990552008152008,1.4419158399105
505745.10731898,456.59005981800146,0.0462026100748562,4.62026100748562e-05,0.45035183429718,-0.990552008152008,1.44090384244918
505749.804315472,461.28705631004414,0.0466779037016563,4.66779037016563e-05,0.449339866638183,-0.990437448024749,1.43977731466293
505754.762711787,466.2454526250367,0.0471796526750442,4.7179652675044195e-05,0.448327898979187,-0.990552008152008,1.43887990713119
505759.299508402,470.78224924003007,0.047638738462011,4.7638738462010996e-05,0.447315901517868,-0.99047565460205,1.43779155611991
505763.936904949,475.4196457870421,0.04810800235816,4.810800235816e-05,0.446303933858871,-0.99038016796112,1.43668410181999
505768.416501617,479.89924245502334,0.0485612993942697,4.85612993942697e-05,0.445253759622573,-0.990265607833862,1.43551936745643
505772.95409823,484.43683906801743,0.049020464655333,4.9020464655333004e-05,0.444222688674926,-0.990227460861206,1.43445014953613
505776.952895252,488.4356360899983,0.0494251095248626,4.94251095248626e-05,0.44321072101593,-0.990227460861206,1.43343818187713
505781.351091981,492.8338328190148,0.0498701715795811,4.9870171579581105e-05,0.442141443490982,-0.990189254283905,1.43233069777488
505785.608888803,497.09162964101415,0.0503010237480104,5.03010237480104e-05,0.441129475831985,-0.990170180797576,1.43129965662956
505789.469285926,500.95202676404733,0.050691662916657,5.0691662916657e-05,0.440117508172988,-0.990227460861206,1.43034496903419
505793.128483202,504.6112240400398,0.0510619422223418,5.10619422223418e-05,0.439105510711669,-0.990093827247619,1.42919933795929
505796.744480501,508.2272213390097,0.0514278479618082,5.14278479618082e-05,0.438093543052673,-0.990170180797576,1.42826372385025
505800.305077846,511.78781868400984,0.0517881505189918,5.17881505189918e-05,0.437062472105026,-0.990017414093017,1.42707988619804
505803.842675216,515.3254160539946,0.0521461246617883,5.21461246617883e-05,0.436050504446029,-0.990074694156646,1.42612519860267
505807.362472591,518.8452134290128,0.0525022987819082,5.25022987819082e-05,0.43503850698471,-0.989960134029388,1.42499864101409
505810.558670211,522.0414110490237,0.0528257255147579,5.28257255147579e-05,0.434026539325714,-0.989998340606689,1.4240248799324
505813.977867672,525.4606085100095,0.0531717194553564,5.31717194553564e-05,0.433014541864395,-0.989902913570404,1.42291745543479
505817.053665367,528.5364062050357,0.05348296393741,5.3482963937409995e-05,0.432002574205398,-0.989883780479431,1.42188635468483
505819.935863225,531.4186040630448,0.0537746169458197,5.37746169458197e-05,0.430990606546402,-0.989807426929473,1.42079803347587
505823.03106092,534.513801758003,0.0540878248244358,5.4087824824435795e-05,0.429978609085083,-0.989864706993103,1.41984331607818
505825.923458764,537.4061996020027,0.054380511021917,5.4380511021917e-05,0.428966641426086,-0.989711940288543,1.41867858171463
505828.703656693,540.1863975310116,0.0546618443678948,5.46618443678948e-05,0.427954673767089,-0.989807426929473,1.41776210069656
505831.209454821,542.6921956590377,0.0549154097315503,5.4915409731550295e-05,0.42694267630577,-0.989692866802215,1.41663554310798
505834.008052749,545.4907935869996,0.0551986044065438,5.51986044065438e-05,0.425930708646774,-0.989845633506774,1.41577634215354
505836.483850898,547.9665917360107,0.0554491352726866,5.54491352726866e-05,0.424899637699127,-0.989807426929473,1.4147070646286
505838.92244908,550.4051899180049,0.0556959017646643,5.5695901764664305e-05,0.42388767004013,-0.989788353443145,1.41367602348327
505841.425247212,552.9079880500212,0.0559491644056588,5.59491644056588e-05,0.422875672578811,-0.989788353443145,1.41266402602195
505843.841645414,555.3243862520321,0.0561936832200338,5.61936832200338e-05,0.421863704919815,-0.989788353443145,1.41165205836296
505846.045843774,557.5285846120096,0.0564167300352983,5.6416730035298296e-05,0.420832633972168,-0.989750146865844,1.41058278083801
505848.345442061,559.8281828990439,0.0566494319865173,5.6649431986517296e-05,0.41978245973587,-0.989731073379516,1.40951353311538
505850.52364043,562.006381268031,0.0568698484349846,5.6869848434984595e-05,0.418770492076873,-0.989807426929473,1.40857791900634
505852.562838918,564.045579756028,0.0570761992435057,5.70761992435057e-05,0.417758494615554,-0.989692866802215,1.40745136141777
505854.461237496,565.9439783340204,0.0572683015787054,5.7268301578705396e-05,0.416708350181579,-0.989654719829559,1.40636307001113
505856.537635961,568.0203767990461,0.0574784169281174,5.74784169281174e-05,0.41569635272026,-0.989616513252258,1.40531286597251
505858.382434588,569.8651754260063,0.0576650958691437,5.76650958691437e-05,0.414646208286285,-0.989711940288543,1.40435814857482
505860.360433107,571.8431739450316,0.0578652535421997,5.78652535421997e-05,0.413615137338638,-0.989654719829559,1.40326985716819
505862.07723183,573.5599726680084,0.0580389803280797,5.80389803280797e-05,0.412603139877319,-0.989635586738586,1.4022387266159
505863.836830512,575.3195713500027,0.0582170374902354,5.82170374902354e-05,0.411591172218322,-0.989731073379516,1.40132224559783
505865.459429303,576.942170141032,0.0583812310406913,5.83812310406913e-05,0.410579204559326,-0.989616513252258,1.40019571781158
505867.052828116,578.5355689540156,0.0585424696466492,5.8542469646649197e-05,0.409567207098007,-0.989578306674957,1.39914551377296
505868.635026948,580.1177677860251,0.0587025755427396,5.87025755427396e-05,0.40855523943901,-0.98959743976593,1.39815267920494
505870.114625835,581.5973666729988,0.0588522992315788,5.8852299231578804e-05,0.407524168491363,-0.98959743976593,1.39712160825729
505871.55462476,583.037365598022,0.0589980142604725,5.89980142604725e-05,0.406512171030044,-0.989654719829559,1.3961668908596
505872.934623737,584.417364575027,0.0591376586311045,5.9137658631104496e-05,0.405500203371048,-0.98959743976593,1.39509764313697
505874.376222666,585.8589635040262,0.059283536656522,5.9283536656522004e-05,0.4044691324234,-0.98959743976593,1.39406657218933
505875.773421617,587.2561624550144,0.059424921546234,5.9424921546234e-05,0.403457164764404,-0.989654719829559,1.39311188459396
505877.029220687,588.5119615250151,0.0595519980281061,5.95519980281061e-05,0.402426093816757,-0.989540159702301,1.39196625351905
505878.273619754,589.7563605920295,0.059677921164246,5.9677921164246e-05,0.401414096355438,-0.989559233188629,1.39097332954406
505879.474018871,590.95675970905,0.0597993918849991,5.97993918849991e-05,0.400402128696441,-0.989616513252258,1.3900186419487
505880.629618009,592.1123588470509,0.0599163290921433,5.99163290921433e-05,0.399332880973815,-0.989521026611328,1.38885390758514
505881.818217125,593.3009579630452,0.0600366055925985,6.00366055925985e-05,0.398320883512496,-0.989387392997741,1.38770827651023
505882.871416334,594.354157172027,0.0601431808885551,6.01431808885551e-05,0.3973089158535,-0.989501953125,1.3868108689785
505883.973815518,595.4565563560463,0.060254734475644,6.0254734475644e-05,0.396277844905853,-0.989559233188629,1.38583707809448
505885.029814726,596.512555563997,0.0603615927724126,6.03615927724126e-05,0.395246773958206,-0.989501953125,1.3847487270832
505886.030213981,597.5129548190162,0.0604628247289789,6.04628247289789e-05,0.394234776496887,-0.989559233188629,1.38379400968551
505886.931813306,598.414554144023,0.0605540592663387,6.05540592663387e-05,0.393184632062912,-0.989482879638671,1.38266751170158
505887.912812585,599.3955534230336,0.060653328576376,6.0653328576376004e-05,0.392134457826614,-0.989501953125,1.38163641095161
505888.850011887,600.3327527250513,0.060748165531872,6.0748165531872e-05,0.391027003526687,-0.98959743976593,1.38062444329261
505889.791211186,601.2739520239993,0.0608434074030485,6.08434074030485e-05,0.38997682929039,-0.989482879638671,1.37945970892906
505890.709010491,602.1917513289955,0.0609362812616527,6.09362812616527e-05,0.388964861631393,-0.989521026611328,1.37848588824272
505891.47120993,602.9539507680456,0.0610134097074816,6.10134097074816e-05,0.387952893972396,-0.989482879638671,1.37743577361106
505892.270809328,603.7535501660313,0.0610943228831556,6.109432288315559e-05,0.386921823024749,-0.989521026611328,1.37644284963607
505893.013008782,604.4957496200223,0.061169427724363,6.1169427724363e-05,0.385871648788452,-0.989463746547699,1.37533539533615
505893.829208171,605.3119490090176,0.0612520204109599,6.12520204109599e-05,0.384859681129455,-0.989387392997741,1.37424707412719
505894.528807648,606.0115484860144,0.0613228141606036,6.13228141606036e-05,0.383847683668136,-0.989482879638671,1.3733305633068
505895.190007159,606.6727479970432,0.0613897224695251,6.13897224695251e-05,0.38283571600914,-0.98944467306137,1.37228038907051
505895.889606637,607.3723474750295,0.0614605166304127,6.14605166304127e-05,0.381823748350143,-0.989463746547699,1.37128749489784
505896.510406179,607.9931470170268,0.0615233365900135,6.15233365900135e-05,0.380754470825195,-0.989406526088714,1.37016099691391
505897.189605669,608.6723465070245,0.0615920662068178,6.15920662068178e-05,0.379742503166198,-0.98944467306137,1.36918717622757
505897.789805227,609.2725460650399,0.0616528016820963,6.16528016820963e-05,0.378730505704879,-0.989501953125,1.36823245882988
505898.390204774,609.8729456120054,0.0617135573416716,6.17135573416716e-05,0.377680361270904,-0.989330112934112,1.36701047420501
505898.971804342,610.4545451800223,0.0617724106400344,6.17724106400344e-05,0.376668363809585,-0.989463746547699,1.36613211035728
505899.512203941,610.9949447790277,0.0618270949685705,6.18270949685705e-05,0.375637292861938,-0.98959743976593,1.36523473262786
505900.048603536,611.5313443740015,0.0618813745062483,6.18813745062483e-05,0.374625325202941,-0.989463746547699,1.36408907175064
505900.569603156,612.0523439940298,0.0619340957778626,6.19340957778626e-05,0.373594254255294,-0.989482879638671,1.36307713389396
505901.071802781,612.5545436190441,0.0619849141396416,6.19849141396416e-05,0.372525006532669,-0.989482879638671,1.36200788617134
505901.570802411,613.0535432490287,0.0620354088967574,6.20354088967574e-05,0.37143662571907,-0.989540159702301,1.36097678542137
505902.072802035,613.555542873044,0.0620862072608073,6.20862072608073e-05,0.370424658060073,-0.989559233188629,1.3599838912487
505902.530801688,614.0135425259941,0.0621325533477498,6.21325533477498e-05,0.369393587112426,-0.989406526088714,1.35880011320114
505902.949001381,614.4317422190215,0.0621748720801836,6.21748720801836e-05,0.36838161945343,-0.989368319511413,1.35774993896484
505903.407401036,614.8901418740279,0.0622212583914746,6.22212583914746e-05,0.367369621992111,-0.989311039447784,1.35668066143989
505903.790400756,615.2731415940216,0.0622600147614826,6.226001476148261e-05,0.366338551044464,-0.989463746547699,1.35580229759216
505904.213000431,615.695741269039,0.0623027783682031,6.23027783682031e-05,0.365307480096817,-0.989406526088714,1.35471400618553
505904.592600152,616.0753409900353,0.062341190633484,6.234119063348399e-05,0.364276409149169,-0.989501953125,1.35377836227417
505904.951999886,616.4347407240421,0.0623775587343325,6.23775587343325e-05,0.363245338201522,-0.989406526088714,1.35265186429023
505905.312599616,616.7953404540312,0.0624140483162138,6.24140483162138e-05,0.362233370542526,-0.989482879638671,1.35171625018119
505905.687399336,617.1701401740429,0.0624519750730097,6.24519750730097e-05,0.361183196306228,-0.98944467306137,1.35062786936759
505906.048599066,617.5313399040024,0.0624885256268199,6.24885256268199e-05,0.360171228647232,-0.989463746547699,1.34963497519493
505906.365598825,617.8483396630036,0.0625206032507883,6.25206032507883e-05,0.359159231185913,-0.989406526088714,1.34856575727462
505906.669998606,618.1527394440491,0.0625514055801547,6.255140558015471e-05,0.358147263526916,-0.989482879638671,1.34763014316558
505906.988998362,618.471739200002,0.0625836853284421,6.25836853284421e-05,0.35707801580429,-0.989501953125,1.34657996892929
505907.270198153,618.7529389910051,0.062612140034861,6.2612140034861e-05,0.356066018342971,-0.989463746547699,1.34552976489067
505907.574197934,619.0569387720316,0.0626429020260373,6.264290202603729e-05,0.354996770620346,-0.989482879638671,1.34447965025901
505907.874397707,619.3571385450196,0.0626732795664618,6.26732795664618e-05,0.353946596384048,-0.989482879638671,1.34342947602272
505908.166997494,619.6497383320238,0.0627028882917132,6.27028882917132e-05,0.352877348661422,-0.989463746547699,1.34234109520912
505908.40919731,619.8919381480082,0.0627273970320638,6.27273970320638e-05,0.351865351200103,-0.989482879638671,1.34134823083877
505908.669997116,620.1527379540494,0.062753788009824,6.275378800982399e-05,0.350853383541107,-0.989425599575042,1.34027898311615
505908.925196921,620.4079377590097,0.0627796121099922,6.27796121099922e-05,0.34982231259346,-0.989368319511413,1.33919063210487
505909.151196752,620.6339375899988,0.0628024813788649,6.280248137886491e-05,0.348810344934463,-0.989463746547699,1.33827409148216
505909.388796581,620.871537419036,0.062826524450067,6.2826524450067e-05,0.347798347473144,-0.989482879638671,1.33728122711181
505909.609196415,621.0919372530188,0.0628488269422203,6.28488269422203e-05,0.346767276525497,-0.989387392997741,1.33615466952323
505909.831596246,621.3143370840116,0.0628713316601514,6.28713316601514e-05,0.34573620557785,-0.989482879638671,1.33521908521652
505910.048596086,621.531336924003,0.0628932899263815,6.289328992638151e-05,0.344686031341552,-0.989387392997741,1.33407342433929
505910.250195937,621.7329367750208,0.0629136900389492,6.29136900389492e-05,0.343674063682556,-0.989311039447784,1.33298510313034
505910.432395798,621.915136636002,0.062932127050658,6.2932127050658e-05,0.342642992734909,-0.989425599575042,1.33206859230995
505910.649595634,622.1323364720447,0.0629541058504531,6.29541058504531e-05,0.341631025075912,-0.989482879638671,1.33111390471458
505910.828395506,622.3111363440403,0.0629721989218973,6.29721989218973e-05,0.340619027614593,-0.989349246025085,1.32996827363967
505911.008795378,622.4915362159954,0.062990454000372,6.2990454000372e-05,0.339607059955596,-0.989425599575042,1.32903265953064
505911.17219525,622.6549360880163,0.0630069888244205,6.300698882442051e-05,0.3385950922966,-0.989368319511413,1.32796341180801
505911.348395122,622.8311359600048,0.0630248188833528,6.302481888335281e-05,0.337583094835281,-0.989540159702301,1.32712325453758
505911.507195007,622.9899358450202,0.0630408882093992,6.30408882093992e-05,0.336552023887634,-0.989387392997741,1.32593941688537
505911.669994881,623.1527357190498,0.0630573622878127,6.30573622878127e-05,0.335444569587707,-0.989406526088714,1.32485109567642
505911.832194754,623.3149355920032,0.0630737755714042,6.30737755714042e-05,0.33441349864006,-0.989540159702301,1.32395365834236
505911.973394656,623.4561354939942,0.0630880637040221,6.308806370402211e-05,0.333382427692413,-0.989387392997741,1.32276982069015
505912.12979454,623.6125353780226,0.0631038900824238,6.31038900824238e-05,0.332370460033416,-0.989463746547699,1.32183420658111
505912.26859443,623.7513352680253,0.063117935404246,6.3117935404246e-05,0.331339389085769,-0.989482879638671,1.32082226872444
505912.40899433,623.8917351679993,0.063132142602649,6.3132142602649e-05,0.330308318138122,-0.989463746547699,1.31977206468582
505912.549994221,624.0327350590378,0.0631464105947663,6.314641059476631e-05,0.329296350479126,-0.989559233188629,1.31885558366775
505912.671194134,624.1539349720115,0.0631586749848028,6.315867498480281e-05,0.328265279531478,-0.989482879638671,1.31774815917015
505912.803994027,624.286734865047,0.0631721132436312,6.31721132436312e-05,0.327253282070159,-0.989368319511413,1.31662160158157
505912.910793957,624.3935347950319,0.0631829204970912,6.318292049709121e-05,0.326241314411163,-0.989501953125,1.31574326753616
505913.032793865,624.5155347030377,0.0631952658351428,6.31952658351428e-05,0.325191140174865,-0.989406526088714,1.31459766626358
505913.149993771,624.6327346090111,0.063207125577761,6.320712557776099e-05,0.324160069227218,-0.989425599575042,1.31358566880226
505913.266193689,624.7489345270442,0.0632188840912133,6.32188840912133e-05,0.323148101568222,-0.989406526088714,1.31255462765693
505913.368593609,624.8513344470412,0.063229246107714,6.322924610771399e-05,0.322136104106903,-0.989559233188629,1.31169533729553
505913.471393539,624.9541343770106,0.0632396485627939,6.32396485627939e-05,0.321105033159256,-0.989406526088714,1.31051155924797
505913.574593463,625.0573343010037,0.0632500916103687,6.32500916103687e-05,0.320093065500259,-0.989425599575042,1.3095186650753
505913.67019339,625.1529342280119,0.0632597655386941,6.32597655386941e-05,0.319042891263961,-0.989425599575042,1.308468490839
505913.770793309,625.2535341470502,0.063269945409735,6.3269945409735e-05,0.318030923604965,-0.989425599575042,1.30745652318
505913.868193236,625.3509340740275,0.0632798014000372,6.32798014000372e-05,0.316999852657318,-0.98944467306137,1.30644452571868
505913.950993182,625.4337340200436,0.0632881800595538,6.328818005955381e-05,0.315987884998321,-0.989387392997741,1.30537527799606
505914.048793105,625.5315339430235,0.0632980765348242,6.329807653482419e-05,0.314975887537002,-0.989425599575042,1.30440148711204
505914.12779305,625.6105338880443,0.0633060706212984,6.33060706212984e-05,0.313944816589355,-0.989368319511413,1.30331313610076
505914.209192981,625.6919338190346,0.0633143076009419,6.33143076009419e-05,0.312932848930358,-0.989425599575042,1.3023584485054
505914.29799292,625.7807337580016,0.0633232933001402,6.332329330014019e-05,0.311920851469039,-0.989406526088714,1.30132737755775
505914.372792864,625.855533702008,0.0633308624534375,6.33308624534375e-05,0.310870707035064,-0.989349246025085,1.30021995306015
505914.450192811,625.9329336490482,0.0633386946311626,6.333869463116259e-05,0.309782356023788,-0.989559233188629,1.29934158921241
505914.529792747,626.0125335850171,0.0633467493787937,6.33467493787937e-05,0.308694005012512,-0.989387392997741,1.29808139801025
505914.610992686,626.0937335240305,0.0633549660885301,6.33549660885301e-05,0.307662904262542,-0.98944467306137,1.29710757732391
505914.686592631,626.1693334690062,0.0633626161081625,6.33626161081625e-05,0.306631833314895,-0.989425599575042,1.29605743288993
505914.751592585,626.2343334230245,0.0633691936331722,6.33691936331722e-05,0.305619865655899,-0.989387392997741,1.29500725865364
505914.825392531,626.3081333690207,0.0633766615834252,6.33766615834252e-05,0.304607897996902,-0.989311039447784,1.29391893744468
505914.887592485,626.3703333230224,0.063382955680107,6.3382955680107e-05,0.303595900535583,-0.989406526088714,1.29300242662429
505914.945392446,626.4281332840328,0.063388804526372,6.338880452637199e-05,0.302583932876586,-0.989291965961456,1.29187589883804
505915.009992396,626.4927332340158,0.0633953415667696,6.339534156676959e-05,0.301552861928939,-0.989330112934112,1.29088297486305
505915.071192352,626.5539331900072,0.063401534530787,6.3401534530787e-05,0.300502687692642,-0.989387392997741,1.28989008069038
505915.132792307,626.6155331450282,0.0634077679574853,6.340776795748531e-05,0.299433439970016,-0.989540159702301,1.28897359967231
505915.192592258,626.6753330960055,0.0634138192840483,6.341381928404829e-05,0.298325985670089,-0.98944467306137,1.28777065873146
505915.249792212,626.7325330500025,0.0634196074443923,6.341960744439231e-05,0.297314018011093,-0.989368319511413,1.2866823375225
505915.307792166,626.7905330040376,0.0634254765951451,6.34254765951451e-05,0.296263843774795,-0.989311039447784,1.28557488322258
505915.366392118,626.8491329560056,0.0634314064434783,6.34314064434783e-05,0.295251876115799,-0.989158332347869,1.28441020846366
505915.413992097,626.8967329350417,0.0634362231308801,6.34362231308801e-05,0.294220805168151,-0.989311039447784,1.28353184461593
505915.466592049,626.9493328870158,0.0634415458101497,6.34415458101497e-05,0.293132424354553,-0.989311039447784,1.28244346380233
505915.512992018,626.9957328560413,0.0634462410819116,6.34462410819116e-05,0.292101353406906,-0.989368319511413,1.28146967291832
505915.566791978,627.0495328160468,0.063451685181063,6.345168518106301e-05,0.291070282459259,-0.989349246025085,1.28041952848434
505915.612591939,627.0953327770112,0.0634563197513636,6.34563197513636e-05,0.290001034736633,-0.989330112934112,1.27933114767074
505915.666991906,627.1497327440302,0.0634618246021668,6.34618246021668e-05,0.288950860500335,-0.989291965961456,1.27824282646179
505915.709391864,627.1921327020391,0.063466115159341,6.3466115159341e-05,0.287843406200408,-0.989406526088714,1.27724993228912
505915.760991836,627.2437326740474,0.0634713366348544,6.34713366348544e-05,0.286831438541412,-0.989349246025085,1.27618068456649
505915.804991792,627.2877326300368,0.0634757890640165,6.34757890640165e-05,0.285819470882415,-0.989330112934112,1.27514958381652
505915.84459177,627.3273326079943,0.0634797962667958,6.347979626679579e-05,0.284712016582489,-0.989253759384155,1.27396577596664
505915.886391742,627.3691325800028,0.0634840260638395,6.34840260638395e-05,0.283680945634841,-0.989196479320526,1.27287742495536
505915.926191704,627.4089325420209,0.0634880535244511,6.348805352445109e-05,0.282668977975845,-0.989387392997741,1.27205637097358
505915.967791676,627.4505325140199,0.063492263123744,6.349226312374399e-05,0.281656980514526,-0.989406526088714,1.27106350660324
505916.006391654,627.4891324920463,0.0634961691170831,6.349616911708309e-05,0.280645012855529,-0.989272832870483,1.26991784572601
505916.045391621,627.5281324590323,0.0635001156251016,6.35001156251016e-05,0.279633045196533,-0.989253759384155,1.26888680458068
505916.082791587,627.565532425011,0.0635039002639733,6.35039002639733e-05,0.278601974248886,-0.989234685897827,1.26783666014671
505916.112791566,627.595532404026,0.0635069360404428,6.35069360404428e-05,0.277532696723938,-0.989406526088714,1.26693922281265
505916.150391536,627.6331323740305,0.0635107408798816,6.35107408798816e-05,0.276520729064941,-0.989311039447784,1.26583176851272
505916.186391513,627.6691323510022,0.0635143837918672,6.35143837918672e-05,0.275508731603622,-0.989406526088714,1.26491525769233
505916.221991489,627.7047323270235,0.0635179861838651,6.35179861838651e-05,0.274496763944625,-0.989120125770568,1.26361688971519
505916.250391467,627.7331323050312,0.0635208599975026,6.352085999750259e-05,0.273484796285629,-0.989425599575042,1.26291039586067
505916.285991443,627.7687322809943,0.0635244623799654,6.35244623799654e-05,0.272434622049331,-0.989272832870483,1.26170745491981
505916.321991419,627.8047322570346,0.0635281052654451,6.35281052654451e-05,0.271346271038055,-0.989196479320526,1.26054275035858
505916.350791398,627.8335322360508,0.063531019561587,6.3531019561587e-05,0.270315200090408,-0.98944467306137,1.25975987315177
505916.38599137,627.8687322080368,0.0635345814877466,6.35345814877466e-05,0.26926502585411,-0.989349246025085,1.25861427187919
505916.41219135,627.8949321880355,0.0635372327466888,6.35372327466888e-05,0.268253058195114,-0.989406526088714,1.25765958428382
505916.445591328,627.9283321660478,0.0635406125369916,6.35406125369916e-05,0.267241060733795,-0.989291965961456,1.25653302669525
505916.470991304,627.9537321420503,0.0635431827963159,6.354318279631591e-05,0.266209989786148,-0.989463746547699,1.25567373633384
505916.50419128,627.9869321180158,0.0635465422860002,6.35465422860002e-05,0.265198022127151,-0.989177405834198,1.25437542796134
505916.530391257,628.0131320950459,0.0635491935354023,6.35491935354023e-05,0.264166951179504,-0.989387392997741,1.25355434417724
505916.558591235,628.041332073044,0.0635520471141884,6.35520471141884e-05,0.263154983520507,-0.989253759384155,1.25240874290466
505916.58659121,628.0693320480059,0.0635548805100404,6.35548805100404e-05,0.262085705995559,-0.989311039447784,1.25139674544334
505916.611991195,628.0947320330306,0.0635574507347229,6.355745073472289e-05,0.261016458272934,-0.989311039447784,1.25032749772071
505916.643191171,628.1259320090176,0.063560607889028,6.3560607889028e-05,0.259985387325286,-0.989024639129638,1.24901002645492
505916.667991159,628.1507319970406,0.0635631174267496,6.35631174267496e-05,0.258954316377639,-0.989387392997741,1.24834170937538
505916.69079114,628.1735319780419,0.0635654245866934,6.356542458669339e-05,0.25794231891632,-0.989291965961456,1.24723428487777
505916.716991118,628.1997319560032,0.0635680758113562,6.35680758113562e-05,0.256930351257324,-0.989139199256897,1.24606955051422
505916.744191094,628.226931932033,0.0635708281923879,6.35708281923879e-05,0.255899280309677,-0.989120125770568,1.24501940608024
505916.766391081,628.2491319190012,0.0635730746597018,6.35730746597018e-05,0.25488731265068,-0.989234685897827,1.2441219985485
505916.788991072,628.2717319100047,0.0635753615904085,6.35753615904085e-05,0.253875315189361,-0.989253759384155,1.24312907457351
505916.813991048,628.2967318860465,0.0635778914163923,6.35778914163923e-05,0.252844244241714,-0.989311039447784,1.24215528368949
505916.836791024,628.3195318620419,0.063580198601413,6.3580198601413e-05,0.251813173294067,-0.989215612411499,1.24102878570556
505916.862791007,628.3455318449996,0.0635828295880142,6.35828295880142e-05,0.250743925571441,-0.989215612411499,1.23995953798294
505916.884591,628.3673318380024,0.0635850355746116,6.358503557461161e-05,0.249731928110122,-0.989253759384155,1.23898568749427
505916.906990978,628.3897318160161,0.0635873022683163,6.358730226831629e-05,0.248719960451126,-0.989291965961456,1.23801192641258
505916.928190955,628.4109317930415,0.0635894475280029,6.35894475280029e-05,0.247669786214828,-0.989291965961456,1.23696175217628
505916.949990948,628.4327317860443,0.0635916534986793,6.35916534986793e-05,0.24665780365467,-0.989330112934112,1.23598791658878
505916.969190931,628.4519317690283,0.0635935963628954,6.35935963628954e-05,0.245645835995674,-0.989330112934112,1.23497594892978
505916.990590909,628.4733317469945,0.0635957618761857,6.359576187618569e-05,0.244614765048027,-0.989272832870483,1.23388759791851
505917.012990901,628.4957317390363,0.0635980285157991,6.35980285157991e-05,0.243583694100379,-0.989349246025085,1.23293294012546
505917.033790884,628.516531722038,0.063600133277787,6.3600133277787e-05,0.242571711540222,-0.989349246025085,1.2319209575653
505917.053990861,628.536731699016,0.0636021773323068,6.36021773323068e-05,0.241464257240295,-0.989234685897827,1.23069894313812
505917.075590854,628.5583316920092,0.0636043630437321,6.36043630437321e-05,0.240414097905159,-0.989330112934112,1.22974421083927
505917.097790837,628.5805316750193,0.0636066095181206,6.36066095181206e-05,0.239363923668861,-0.989234685897827,1.22859860956668
505917.116190815,628.5989316530176,0.0636084714456316,6.36084714456316e-05,0.238351956009864,-0.989234685897827,1.22758664190769
505917.135590812,628.6183316500392,0.0636104345631019,6.36104345631019e-05,0.237339973449707,-0.989177405834198,1.2265173792839
505917.152590792,628.6353316300083,0.0636121548107647,6.36121548107647e-05,0.236327990889549,-0.989330112934112,1.22565810382366
505917.172190779,628.6549316170276,0.0636141381680634,6.36141381680634e-05,0.235258728265762,-0.989368319511413,1.22462704777717
505917.190190768,628.6729316060082,0.0636159596187621,6.361595961876209e-05,0.234208568930625,-0.989272832870483,1.2234814018011
505917.211190744,628.6939315820346,0.0636180846393108,6.36180846393108e-05,0.233196586370468,-0.989272832870483,1.22246941924095
505917.229790741,628.7125315790181,0.0636199667932358,6.36199667932358e-05,0.232108235359191,-0.989234685897827,1.22134292125701
505917.248990722,628.731731560023,0.0636219096471932,6.36219096471932e-05,0.231019884347915,-0.989253759384155,1.22027364373207
505917.268390705,628.7511315430165,0.0636238728014396,6.36238728014396e-05,0.229969710111618,-0.989311039447784,1.2192807495594
505917.287590699,628.7703315370018,0.0636258156525641,6.36258156525641e-05,0.22893863916397,-0.989139199256897,1.21807783842086
505917.304990674,628.7877315120422,0.0636275763837595,6.36275763837595e-05,0.227888479828834,-0.989139199256897,1.21702767908573
505917.323790671,628.8065315090353,0.0636294787644296,6.36294787644296e-05,0.226800128817558,-0.989253759384155,1.21605388820171
505917.343590652,628.8263314900105,0.0636314823873638,6.363148238736379e-05,0.225769057869911,-0.989139199256897,1.2149082571268
505917.35939064,628.8421314780135,0.0636330812183038,6.36330812183038e-05,0.224757075309753,-0.989215612411499,1.21397268772125
505917.375790629,628.8585314670345,0.0636347407545877,6.36347407545877e-05,0.223745092749595,-0.989311039447784,1.21305613219738
505917.390390617,628.8731314550387,0.0636362181415988,6.363621814159879e-05,0.222714021801948,-0.989272832870483,1.21198685467243
505917.407590605,628.89033144305,0.0636379586308581,6.36379586308581e-05,0.221663862466812,-0.989253759384155,1.21091762185096
505917.425390588,628.9081314260256,0.0636397598530153,6.36397598530153e-05,0.220632791519165,-0.989215612411499,1.20984840393066
505917.443190582,628.9259314200026,0.0636415610564499,6.36415610564499e-05,0.219601720571517,-0.989120125770568,1.20872184634208
505917.457990562,628.9407314000418,0.0636430587069805,6.364305870698051e-05,0.21858973801136,-0.989177405834198,1.20776714384555
505917.471790558,628.9545313960407,0.0636444551664938,6.36444551664938e-05,0.217577755451202,-0.989253759384155,1.20683151483535
505917.48879054,628.9715313780471,0.0636461754410067,6.36461754410067e-05,0.216508492827415,-0.989062845706939,1.20557133853435
505917.506190536,628.9889313740423,0.0636479361814044,6.36479361814044e-05,0.215477421879768,-0.989196479320526,1.20467390120029
505917.523590511,629.0063313490245,0.0636496968970348,6.36496968970348e-05,0.214465454220771,-0.989024639129638,1.20349009335041
505917.537990513,629.0207313510473,0.063651154086646,6.3651154086646e-05,0.213415279984474,-0.989177405834198,1.20259268581867
505917.551790492,629.0345313300495,0.0636525505366143,6.36525505366143e-05,0.212384209036827,-0.989291965961456,1.20167617499828
505917.567990489,629.0507313270355,0.0636541898079795,6.36541898079795e-05,0.21129585802555,-0.989196479320526,1.20049233734607
505917.584590466,629.067331304017,0.0636558695788052,6.36558695788052e-05,0.210264787077903,-0.989158332347869,1.19942311942577
505917.601590467,629.0843313049991,0.0636575898483759,6.36575898483759e-05,0.209214612841606,-0.989253759384155,1.19846837222576
505917.613790446,629.0965312840417,0.0636588243934843,6.36588243934843e-05,0.208164453506469,-0.989234685897827,1.19739913940429
505917.629790442,629.1125312800286,0.0636604434918363,6.366044349183631e-05,0.207133382558822,-0.989234685897827,1.19636806845665
505917.645390423,629.1281312610372,0.0636620220794147,6.36620220794147e-05,0.206064119935035,-0.98910105228424,1.19516517221927
505917.662190419,629.1449312570039,0.0636637220967842,6.36637220967842e-05,0.205052137374877,-0.989024639129638,1.19407677650451
505917.675790401,629.1585312390234,0.0636650982952597,6.366509829525969e-05,0.203982874751091,-0.989177405834198,1.19316028058528
505917.689390396,629.1721312340233,0.063666474515996,6.366647451599599e-05,0.202913627028465,-0.989234685897827,1.19214831292629
505917.70539038,629.1881312180194,0.0636680935729725,6.366809357297249e-05,0.201863452792167,-0.989062845706939,1.1909262984991
505917.721790372,629.204531210009,0.0636697531092729,6.36697531092729e-05,0.200851470232009,-0.98910105228424,1.18995252251625
505917.732790364,629.2155312020332,0.0636708661871237,6.36708661871237e-05,0.199801310896873,-0.989349246025085,1.18915055692195
505917.748790349,629.2315311870188,0.0636724852126522,6.36724852126522e-05,0.198789328336715,-0.989368319511413,1.18815764784812
505917.764590339,629.2473311770009,0.0636740840365207,6.367408403652069e-05,0.197758257389068,-0.989043772220611,1.18680202960968
505917.776990327,629.259731165017,0.0636753387843569,6.36753387843569e-05,0.19674627482891,-0.989158332347869,1.18590460717678
505917.789590327,629.2723311650334,0.0636766137822717,6.36766137822717e-05,0.195696115493774,-0.989291965961456,1.18498808145523
505917.806390302,629.2891311400454,0.0636783137752363,6.367831377523631e-05,0.194550484418869,-0.989139199256897,1.18368968367576
505917.821590302,629.3043311400106,0.0636798518619454,6.36798518619454e-05,0.193538501858711,-0.989024639129638,1.18256314098835
505917.834190281,629.316931119014,0.0636811268612593,6.36811268612593e-05,0.192526519298553,-0.989177405834198,1.18170392513275
505917.848190279,629.3309311170015,0.0636825435690846,6.368254356908459e-05,0.191514551639556,-0.989158332347869,1.18067288398742
505917.861990263,629.3447311010095,0.0636839399791144,6.36839399791144e-05,0.190502569079399,-0.989139199256897,1.17964176833629
505917.873790256,629.356531094003,0.0636851340198268,6.36851340198268e-05,0.189490586519241,-0.989158332347869,1.17864891886711
505917.888590248,629.371331086033,0.0636866316081301,6.36866316081301e-05,0.188440427184104,-0.989139199256897,1.177579626441
505917.903790233,629.3865310710389,0.0636881696990794,6.368816969907939e-05,0.187409356236457,-0.98910105228424,1.17651040852069
505917.91639023,629.3991310680285,0.0636894447093589,6.36894447093589e-05,0.1863973736763,-0.989177405834198,1.17557477951049
505917.929590208,629.4123310460127,0.0636907804267687,6.369078042676871e-05,0.185366302728653,-0.989215612411499,1.17458191514015
505917.94419021,629.4269310480449,0.063692257814846,6.3692257814846e-05,0.184354320168495,-0.988986492156982,1.17334081232547
505917.955390194,629.4381310320459,0.0636933911710646,6.369339117106459e-05,0.183323249220848,-0.989139199256897,1.17246244847774
505917.968990186,629.451731024019,0.0636947673741264,6.369476737412639e-05,0.182292178273201,-0.989234685897827,1.17152686417102
505917.982990177,629.4657310150214,0.0636961840568615,6.36961840568615e-05,0.181261107325553,-0.989062845706939,1.17032395303249
505917.995590164,629.4783310019993,0.0636974590805735,6.36974590805735e-05,0.180230036377906,-0.989024639129638,1.16925467550754
505918.008390164,629.4911310020252,0.063698754311944,6.3698754311944e-05,0.179179862141609,-0.989158332347869,1.16833819448947
505918.023790138,629.5065309760394,0.0637003126473211,6.37003126473211e-05,0.178148791193962,-0.989043772220611,1.16719256341457
505918.033990139,629.5167309770477,0.0637013448065254,6.370134480652539e-05,0.177136823534965,-0.989215612411499,1.16635243594646
505918.048190126,629.5309309640434,0.0637027817354318,6.37027817354318e-05,0.176086649298667,-0.989215612411499,1.16530226171016
505918.062790117,629.5455309550161,0.0637042591616809,6.37042591616809e-05,0.17505557835102,-0.98910105228424,1.16415663063526
505918.073790112,629.5565309500089,0.0637053722533252,6.37053722533252e-05,0.174043595790863,-0.989158332347869,1.16320192813873
505918.086590092,629.5693309300113,0.0637066675041499,6.37066675041499e-05,0.173031628131866,-0.98910105228424,1.1621326804161
505918.099390093,629.5821309310268,0.0637079627482526,6.370796274825261e-05,0.172000557184219,-0.98900556564331,1.16100612282753
505918.111390078,629.5941309159971,0.0637091770560046,6.370917705600459e-05,0.170988574624061,-0.989196479320526,1.16018505394458
505918.12639007,629.6091309080366,0.0637106949134899,6.37106949134899e-05,0.169919312000274,-0.989139199256897,1.15905851125717
505918.13959006,629.6223308980116,0.0637120306531588,6.371203065315879e-05,0.168907329440116,-0.989024639129638,1.15793196856975
505918.150590046,629.6333308840403,0.0637131437331338,6.37131437331338e-05,0.167838081717491,-0.989158332347869,1.15699641406536
505918.164790047,629.6475308850058,0.0637145806426025,6.37145806426025e-05,0.166806995868682,-0.989062845706939,1.15586984157562
505918.177790025,629.6605308630387,0.0637158961463289,6.37158961463289e-05,0.165775924921035,-0.988833725452423,1.15460965037345
505918.189990023,629.6727308609989,0.0637171306691832,6.371713066918321e-05,0.164744853973388,-0.989043772220611,1.153788626194
505918.203590011,629.6863308490138,0.0637185068616453,6.371850686164531e-05,0.163732886314392,-0.989120125770568,1.15285301208496
505918.21379,629.6965308380313,0.0637195390144652,6.37195390144652e-05,0.162720903754234,-0.989177405834198,1.15189830958843
505918.22759,629.7103308380465,0.0637209354333132,6.37209354333132e-05,0.161670729517936,-0.989139199256897,1.15080992877483
505918.241189977,629.723930815002,0.0637223116349677,6.372231163496769e-05,0.160639658570289,-0.989024639129638,1.14966429769992
505918.251789977,629.7345308150398,0.0637233842564937,6.372338425649369e-05,0.159627690911293,-0.989272832870483,1.14890052378177
505918.265789965,629.7485308030155,0.0637248009484228,6.37248009484228e-05,0.158615708351135,-0.989043772220611,1.14765948057174
505918.278589953,629.7613307910506,0.0637260961935934,6.372609619359341e-05,0.157565549015998,-0.989062845706939,1.14662839472293
505918.290189953,629.7729307910195,0.0637272700188722,6.372727001887219e-05,0.156496286392211,-0.989196479320526,1.14569276571273
505918.304189929,629.7869307670044,0.0637286867058409,6.372868670584091e-05,0.155407920479774,-0.98910105228424,1.14450897276401
505918.31718993,629.7999307680293,0.063730002208867,6.3730002208867e-05,0.154376849532127,-0.989158332347869,1.14353518187999
505918.328589918,629.8113307559979,0.063731155779471,6.3731155779471e-05,0.15336488187313,-0.989215612411499,1.14258049428463
505918.342789907,629.8255307450308,0.0637325927143891,6.373259271438909e-05,0.152352899312973,-0.988948285579681,1.14130118489265
505918.353189906,629.8359307440114,0.0637336451233128,6.37336451233128e-05,0.151302739977836,-0.989253759384155,1.14055649936199
505918.367189882,629.8499307199963,0.0637350617968456,6.37350617968456e-05,0.150214374065399,-0.989158332347869,1.13937270641326
505918.379789883,629.8625307210023,0.0637363368021895,6.37363368021895e-05,0.149164214730262,-0.989062845706939,1.1382270604372
505918.391389871,629.8741307090386,0.063737510607317,6.3737510607317e-05,0.148152232170105,-0.989120125770568,1.13727235794067
505918.40478986,629.8875306980335,0.0637388665659593,6.37388665659593e-05,0.147102072834968,-0.989196479320526,1.13629855215549
505918.417189857,629.8999306950136,0.0637401213381853,6.374012133818529e-05,0.14609009027481,-0.98910105228424,1.13519114255905
505918.428589837,629.9113306750078,0.0637412749345948,6.374127493459481e-05,0.145078107714653,-0.989062845706939,1.13414095342159
505918.443189837,629.9259306750027,0.0637427523064066,6.37427523064066e-05,0.144027948379516,-0.98900556564331,1.13303351402282
505918.453189825,629.9359306630213,0.0637437642098632,6.37437642098632e-05,0.142996877431869,-0.98910105228424,1.13209792971611
505918.466989814,629.9497306520352,0.0637451606488774,6.37451606488774e-05,0.141984894871711,-0.989081919193267,1.13106681406498
505918.47958981,629.9623306480353,0.063746435632295,6.3746435632295e-05,0.140972912311554,-0.989062845706939,1.13003575801849
505918.490589791,629.973330629,0.0637475487352493,6.37475487352493e-05,0.139941841363906,-0.989120125770568,1.12906196713447
505918.50378979,629.9865306279971,0.0637488844484041,6.37488844484041e-05,0.13892987370491,-0.988891005516052,1.12782087922096
505918.515789778,629.9985306159942,0.0637500987278802,6.37500987278802e-05,0.137917891144752,-0.989081919193267,1.12699981033802
505918.527789768,630.0105306060286,0.063751313007709,6.3751313007709e-05,0.136905908584594,-0.989234685897827,1.12614059448242
505918.541789764,630.024530602037,0.0637527296709865,6.37527296709865e-05,0.135893926024437,-0.989043772220611,1.12493769824504
505918.551389748,630.0341305860202,0.0637537011220024,6.37537011220024e-05,0.134862855076789,-0.989234685897827,1.12409754097461
505918.565189744,630.047930582019,0.0637550975695037,6.375509756950371e-05,0.133850887417793,-0.98910105228424,1.12295193970203
505918.576789734,630.0595305720344,0.0637562713721576,6.37562713721576e-05,0.132838904857635,-0.989024639129638,1.12186354398727
505918.589189721,630.0719305590028,0.0637575261404878,6.375752614048779e-05,0.131807833909988,-0.989215612411499,1.12102344632148
505918.602189721,630.0849305590382,0.0637588416268941,6.375884162689411e-05,0.13079585134983,-0.988948285579681,1.11974413692951
505918.612589703,630.0953305410221,0.0637598940128402,6.37598940128402e-05,0.129745692014694,-0.989081919193267,1.11882761120796
505918.626989697,630.1097305350122,0.0637613511766344,6.376135117663439e-05,0.128733709454536,-0.989024639129638,1.11775834858417
505918.639789687,630.1225305250264,0.0637626464260369,6.37626464260369e-05,0.127702638506889,-0.988986492156982,1.11668913066387
505918.651189674,630.1339305120055,0.0637638000189132,6.37638000189132e-05,0.126614287495613,-0.989081919193267,1.11569620668888
505918.664989674,630.1477305120206,0.0637651964671214,6.376519646712139e-05,0.125583216547966,-0.988871932029724,1.11445514857769
505918.677589653,630.1603304910241,0.0637664714452508,6.37664714452508e-05,0.124513946473598,-0.989081919193267,1.11359586566686
505918.688789651,630.1715304889949,0.0637676047689484,6.37676047689484e-05,0.123501971364021,-0.989196479320526,1.11269845068454
505918.703789638,630.1865304760286,0.0637691226168771,6.37691226168771e-05,0.122394524514675,-0.988871932029724,1.11126645654439
505918.715589628,630.1983304659952,0.0637703166593528,6.37703166593528e-05,0.121344357728958,-0.989081919193267,1.11042627692222
505918.727389628,630.2101304660318,0.0637715107248011,6.37715107248011e-05,0.120313286781311,-0.989043772220611,1.10935705900192
505918.741389604,630.2241304420168,0.0637729273873683,6.37729273873683e-05,0.119282208383083,-0.988967418670654,1.10824962705373
505918.752589604,630.2353304420249,0.0637740607192035,6.37740607192035e-05,0.118193857371807,-0.989158332347869,1.10735218971967
505918.766389591,630.2491304290015,0.0637754571741189,6.377545717411889e-05,0.11716278642416,-0.98900556564331,1.10616835206747
505918.780389581,630.2631304190145,0.0637768738518969,6.37768738518969e-05,0.116150811314582,-0.988948285579681,1.10509909689426
505918.791389579,630.274130417034,0.0637779869658234,6.37779869658234e-05,0.115100644528865,-0.98910105228424,1.1042016968131
505918.804789556,630.2875303940382,0.063779342903253,6.3779342903253e-05,0.114069566130638,-0.988986492156982,1.10305605828762
505918.817789557,630.3005303950049,0.0637806583765794,6.37806583765794e-05,0.113038495182991,-0.989120125770568,1.10215862095356
505918.829189544,630.3119303820422,0.0637818119408289,6.378181194082889e-05,0.111969240009784,-0.989177405834198,1.10114664584398
505918.843589534,630.326330372016,0.0637832690858989,6.37832690858989e-05,0.110957257449626,-0.98900556564331,1.09996282309293
505918.854189531,630.336930369027,0.063784341703188,6.3784341703188e-05,0.109926186501979,-0.989081919193267,1.09900810569524
505918.86758951,630.3503303480102,0.0637856976780891,6.37856976780891e-05,0.108914211392402,-0.989120125770568,1.09803433716297
505918.882189512,630.3649303500424,0.0637871750714613,6.378717507146129e-05,0.107864044606685,-0.988967418670654,1.09683146327734
505918.893189495,630.3759303330444,0.0637882881885634,6.37882881885634e-05,0.106794781982898,-0.98910105228424,1.09589583426713
505918.906989488,630.3897303260164,0.0637896846081399,6.37896846081399e-05,0.105687335133552,-0.98900556564331,1.09469290077686
505918.921989476,630.4047303140396,0.0637912024885962,6.37912024885962e-05,0.104637168347835,-0.988967418670654,1.09360458701849
505918.932989465,630.415730303037,0.0637923156191358,6.37923156191358e-05,0.103625193238258,-0.989081919193267,1.09270711243152
505918.946589464,630.4293303019949,0.0637936918154805,6.37936918154805e-05,0.102575026452541,-0.989120125770568,1.09169515222311
505918.96118944,630.4439302780083,0.0637951691979003,6.37951691979003e-05,0.101505763828754,-0.988967418670654,1.0904731824994
505918.97258944,630.4553302780259,0.0637963228038565,6.37963228038565e-05,0.100398316979408,-0.989062845706939,1.08946116268634
505918.981789434,630.4645302720019,0.0637972537568211,6.379725375682111e-05,0.0999400615692138,-0.988833725452423,1.08877378702163
505918.981989434,630.4647302720114,0.0637972739938215,6.37972739938215e-05,0.100016437470912,-0.988967418670654,1.08898385614156
